Channel 0,Channel 1,Channel 2,Channel 3,Channel 4,Channel 5,Channel 6,Channel 7,actionCategry
559,468,93,132,58,1289,1678,1277,0
471,382,66,130,58,1206,1475,1275,0
427,386,50,120,56,985,1293,1146,0
413,353,44,82,54,775,998,974,0
395,328,40,60,40,239,724,456,0
310,332,41,38,46,90,347,249,0
272,295,71,35,41,70,154,251,0
182,319,72,34,45,59,85,242,0
184,341,83,36,46,58,56,239,0
236,311,97,35,41,95,46,224,0
238,316,130,44,36,113,310,225,0
229,563,118,58,37,164,415,191,0
219,681,117,58,31,178,420,170,0
201,725,113,57,29,214,424,162,0
137,746,246,56,33,204,430,191,1
137,739,473,48,39,201,302,181,1
146,560,824,29,44,166,195,204,1
169,423,921,35,50,182,234,214,1
197,316,1051,41,52,140,279,208,1
201,613,1222,42,50,135,274,183,1
242,758,1207,45,49,153,274,179,1
251,914,1040,53,60,152,238,136,1
265,1083,1118,54,61,113,188,118,1
247,1139,1238,50,59,113,105,115,1
314,1106,1304,60,61,115,103,119,1
295,1037,1500,75,59,80,115,136,1
348,911,1725,74,72,83,106,129,1
324,680,1744,79,75,80,106,131,1
335,581,1592,79,76,77,102,157,1
362,311,1392,73,76,73,111,177,1
362,182,1128,67,76,66,105,192,1
303,158,695,82,51,64,115,205,1
300,147,318,87,45,66,122,233,1
294,150,350,95,49,73,141,253,1
167,146,417,115,52,68,134,242,1
151,148,431,134,59,69,138,258,1
142,265,497,144,69,68,129,330,1
147,424,590,166,72,63,128,326,1
133,503,590,184,77,51,104,321,1
128,532,554,176,84,55,102,329,1
112,555,581,163,79,52,93,327,1
96,508,561,149,73,44,87,267,1
94,389,481,129,75,46,98,437,1
86,285,450,112,67,45,103,440,1
78,225,441,126,63,41,105,446,1
88,162,468,135,71,42,104,455,1
79,189,498,137,69,39,101,451,1
77,210,542,144,63,44,78,283,1
82,203,586,194,78,73,90,337,1
87,234,686,264,101,74,117,444,1
107,277,634,258,95,83,135,458,1
120,292,631,265,114,184,150,462,1
303,423,622,262,122,195,151,456,1
359,898,577,224,120,193,141,407,1
468,1101,499,177,107,197,149,371,1
582,1304,557,293,117,196,142,340,1
628,1311,510,318,127,161,131,332,1
602,1296,486,334,156,171,132,334,1
656,1045,495,420,185,172,138,340,1
661,838,470,465,197,168,101,225,1
574,527,385,415,194,169,82,184,1
528,496,349,394,179,122,73,194,1
541,429,276,379,149,90,73,206,1
544,434,213,283,103,140,64,192,1
471,422,133,159,64,143,62,184,1
459,357,137,124,60,141,68,196,1
480,424,133,124,72,140,70,174,1
502,502,155,178,95,142,71,168,1
464,629,215,312,138,142,79,166,1
470,732,290,343,197,153,80,159,1
596,727,447,427,258,164,81,147,1
737,696,486,461,481,221,86,177,1
771,657,641,463,533,225,85,220,1
838,545,715,440,583,208,208,384,1
861,432,907,457,637,258,376,687,1
795,515,981,454,660,265,430,809,1
748,778,1113,470,598,258,515,965,1
675,899,1183,559,585,268,585,1112,1
554,1114,1193,597,590,268,641,1270,1
549,1100,1178,690,625,265,588,1276,1
565,1054,1288,741,694,303,561,1247,1
455,870,1242,773,779,287,498,1223,1
463,726,1198,757,818,308,481,1172,1
488,209,1209,756,868,345,414,1069,1
450,139,1149,774,917,349,412,1040,1
428,112,1042,735,879,315,446,1150,1
427,97,1058,700,828,323,457,1108,1
428,81,1062,709,930,322,446,1147,1
419,68,1152,735,918,349,472,1174,1
500,69,1227,698,850,341,556,1218,1
519,63,1169,737,851,374,542,1210,1
515,64,1172,756,908,410,568,1211,1
517,57,1163,714,792,393,539,1188,1
537,57,1066,680,754,332,478,1138,1
464,55,1033,614,723,345,354,1015,1
430,55,1090,516,782,316,392,926,1
415,53,1064,487,705,300,333,966,1
443,56,1045,520,690,306,416,1011,1
379,55,1153,562,684,314,435,954,1
349,53,1174,559,692,270,436,976,1
366,59,1132,602,666,267,412,1068,1
413,57,1135,609,622,221,486,1094,1
332,53,1171,580,607,208,402,956,1
366,56,1136,536,620,211,466,1131,1
371,56,1090,514,589,211,469,1155,1
354,52,1098,495,500,202,436,1040,1
289,55,1138,491,453,186,355,964,1
325,54,1127,487,470,198,363,995,1
269,50,1068,434,384,182,244,827,1
258,53,1020,446,423,170,212,711,1
230,53,1063,404,485,171,208,748,1
242,55,979,363,502,173,193,768,1
216,56,928,334,462,147,186,775,1
200,57,879,309,483,156,175,705,1
216,55,840,266,449,158,255,831,1
225,54,737,285,345,136,261,843,1
211,49,729,266,390,132,275,868,1
198,49,902,270,386,142,274,875,1
211,48,932,275,372,116,272,918,1
208,60,1008,316,404,112,212,844,1
196,58,1121,369,467,129,248,931,1
196,58,1150,373,428,126,253,914,1
210,58,1059,355,422,109,244,893,1
202,58,1085,349,425,107,242,880,1
215,43,1104,359,435,144,312,951,1
243,44,977,294,420,147,308,926,1
237,42,941,289,417,152,298,909,1
212,41,938,295,459,158,301,890,1
211,39,863,294,440,165,308,889,1
194,41,749,282,407,143,273,847,1
167,38,788,283,368,131,303,858,1
153,47,859,280,358,133,287,810,1
166,47,836,309,324,124,298,846,1
166,46,810,325,328,116,299,874,1
142,43,822,278,293,115,249,798,1
130,43,911,262,276,106,174,618,1
139,39,850,318,325,94,177,629,1
132,61,843,303,291,103,170,648,1
127,94,872,286,278,100,149,548,1
130,99,903,306,284,83,145,520,1
119,133,793,305,266,88,143,538,1
139,152,775,249,193,89,160,633,1
132,167,693,221,206,75,133,548,1
127,161,733,235,317,89,128,540,1
126,165,743,234,315,93,136,581,1
143,150,705,219,317,87,124,597,1
134,136,798,206,330,89,96,469,1
136,117,836,215,349,89,93,456,1
168,144,818,200,316,100,140,561,1
187,163,792,186,311,104,165,638,1
180,165,811,177,307,104,166,604,1
177,179,752,176,282,101,166,622,1
175,186,749,177,272,111,178,630,1
152,170,788,205,211,97,158,632,1
123,166,865,193,247,99,138,563,1
118,169,830,191,261,106,137,550,1
116,179,794,203,281,111,153,565,1
132,200,840,194,268,104,151,578,1
126,218,819,143,256,97,143,469,1
129,234,692,145,234,85,132,410,1
133,233,780,179,271,75,139,482,1
151,216,813,177,246,70,130,453,1
140,210,724,169,221,62,116,445,1
143,201,717,168,228,69,108,461,1
152,177,707,157,220,74,115,492,1
151,179,627,166,185,89,128,506,1
131,180,590,166,203,84,118,505,1
142,177,617,178,232,94,123,516,1
159,189,546,202,248,105,163,665,1
152,203,590,217,278,105,160,659,1
143,216,564,188,265,102,142,587,1
158,225,550,176,252,106,148,611,1
157,212,574,191,231,96,151,607,1
139,201,653,183,233,86,112,429,1
136,223,597,176,216,104,105,404,1
142,203,697,174,212,94,105,417,1
117,195,683,182,214,96,122,436,1
108,210,644,159,206,116,114,429,1
101,223,578,145,181,115,114,426,1
110,189,764,145,148,99,125,499,1
123,208,661,147,161,100,145,567,1
118,221,707,167,165,95,121,509,1
116,221,739,165,170,85,119,497,1
144,242,740,161,176,87,118,541,1
138,277,568,145,171,93,148,635,1
127,278,560,144,165,94,134,574,1
131,289,552,171,270,93,133,568,1
137,316,562,233,354,97,146,664,1
142,305,617,233,354,97,157,707,1
143,288,620,234,369,102,120,580,1
139,281,727,234,363,103,114,587,1
139,271,750,192,312,109,124,607,1
136,245,688,97,218,104,126,536,1
125,239,636,128,229,108,125,466,1
118,232,657,141,228,98,125,467,1
123,256,612,160,302,107,126,527,1
135,257,518,158,283,110,130,542,1
137,248,560,181,288,102,113,504,1
117,242,525,170,277,96,98,486,1
130,233,505,172,290,102,95,477,1
157,216,446,164,231,88,96,416,1
155,209,469,162,228,75,80,386,1
153,213,583,171,224,84,80,366,1
157,208,656,166,305,101,80,408,1
179,213,709,175,285,99,94,478,1
162,209,699,162,303,112,100,536,1
156,238,695,176,340,144,103,543,1
151,232,629,149,397,155,107,584,1
153,221,586,173,443,153,112,579,1
136,219,521,162,446,155,108,532,1
122,221,600,170,429,149,103,465,1
116,206,657,188,468,139,97,429,1
119,206,651,196,443,147,124,513,1
123,209,669,186,358,144,122,481,1
100,250,735,183,372,137,115,462,1
107,243,714,188,368,139,113,459,1
119,242,756,179,338,132,116,503,1
124,256,730,188,330,108,88,390,1
120,266,687,177,319,98,83,406,1
120,219,613,171,296,98,88,416,1
131,241,606,174,351,96,96,414,1
143,237,533,176,396,90,98,458,1
141,238,537,203,465,81,89,438,1
129,227,602,207,476,84,87,408,1
129,242,620,217,494,93,95,444,1
119,260,594,234,492,98,91,476,1
109,256,582,215,419,98,96,450,1
112,251,557,181,371,107,99,441,1
119,257,568,177,396,111,98,494,1
125,262,519,165,378,107,108,515,1
125,240,495,124,342,108,112,543,1
109,222,508,150,403,106,103,485,1
103,209,559,187,358,112,104,505,1
126,201,523,212,331,114,126,530,1
131,190,536,217,326,111,113,499,1
132,181,607,239,384,120,113,458,1
133,224,642,246,373,123,116,464,1
141,246,688,225,382,114,118,477,1
148,257,647,210,375,116,106,456,1
147,253,702,215,384,119,102,443,1
141,253,685,197,323,106,95,440,1
145,230,647,186,302,103,110,518,1
150,203,544,165,311,100,109,543,1
124,197,545,166,373,105,105,513,1
116,254,550,175,381,104,110,548,1
141,293,506,208,441,123,119,542,1
138,334,503,200,420,131,125,564,1
127,351,544,200,410,134,120,513,1
125,392,563,184,380,140,131,528,1
148,387,487,182,444,154,135,522,1
131,394,497,143,426,145,139,596,1
134,370,551,133,415,135,116,499,1
129,358,553,144,411,132,123,522,1
133,338,611,151,402,116,118,532,1
118,331,625,133,339,95,109,508,1
110,377,628,119,277,83,93,451,1
104,363,558,141,298,90,95,446,1
127,367,550,137,329,104,94,416,1
125,360,486,143,355,107,77,352,1
123,358,554,181,353,106,87,409,1
124,261,545,201,411,105,92,374,1
125,274,643,202,438,125,95,389,1
102,299,638,226,466,122,101,451,1
115,279,650,216,424,124,120,535,1
112,275,592,197,450,140,117,524,1
117,287,587,210,459,143,116,520,1
121,274,476,232,489,133,117,545,1
133,237,473,221,448,125,127,585,1
182,290,433,226,448,120,129,641,1
185,296,485,224,436,109,127,621,1
185,284,482,197,392,120,127,607,1
198,289,524,155,301,117,169,718,1
193,295,533,193,324,120,161,695,1
134,259,606,202,376,143,149,596,1
149,254,587,215,339,142,149,583,1
154,259,586,230,364,136,160,629,1
146,287,515,230,381,135,118,524,2
165,304,515,184,405,137,123,498,2
165,284,484,179,457,126,122,502,2
142,295,474,147,455,122,131,540,2
147,284,477,142,479,127,120,491,2
131,260,522,145,502,125,112,458,2
102,257,516,157,553,128,99,431,2
113,287,519,146,484,118,118,494,2
117,268,560,149,492,113,107,452,2
106,299,599,159,465,142,111,477,2
115,287,604,160,440,138,115,470,2
125,333,591,150,356,140,139,536,2
143,329,541,175,433,140,131,495,2
146,329,482,206,466,148,143,514,2
146,308,457,239,617,118,144,508,2
146,383,484,244,681,124,151,503,2
153,367,578,242,697,120,131,427,2
127,369,686,239,655,120,126,409,2
129,374,688,233,645,124,109,361,2
143,396,692,193,529,127,114,440,2
140,423,671,196,441,127,136,499,2
126,437,576,211,422,122,145,611,2
124,435,491,205,435,120,141,608,2
127,451,497,188,457,111,144,618,2
122,457,457,166,387,106,134,571,2
120,390,483,166,395,104,104,546,2
116,385,534,167,412,102,91,447,2
132,428,513,161,439,120,109,516,2
133,413,506,189,384,122,115,646,2
124,399,515,201,409,122,113,630,2
127,394,449,189,393,119,125,660,2
132,355,382,208,333,118,138,683,2
139,319,352,230,276,105,135,670,2
314,301,284,215,272,344,140,536,2
361,294,239,220,272,473,146,521,2
385,276,210,258,262,578,141,436,2
432,415,172,236,246,583,122,326,2
570,583,153,388,233,662,138,168,2
592,625,180,455,267,587,128,170,2
605,938,170,521,224,498,122,164,2
617,1243,166,518,220,385,112,155,2
725,1253,165,527,234,396,115,169,2
702,1418,162,431,204,253,78,169,2
687,1458,141,453,153,241,77,158,2
674,1292,144,387,150,224,71,159,2
739,1018,137,384,154,198,67,162,2
625,960,134,365,121,166,65,150,2
650,597,128,379,121,154,59,147,2
695,436,95,258,106,141,59,148,2
815,408,77,246,100,133,64,148,2
801,411,82,224,90,142,61,141,2
835,412,85,252,105,170,63,139,2
847,389,88,215,99,173,61,125,2
794,390,80,201,102,167,54,105,2
737,455,94,194,100,167,53,119,2
738,436,86,250,91,157,56,120,2
689,423,80,235,71,127,49,115,2
565,391,73,218,70,108,47,114,2
538,413,70,216,59,102,48,138,2
450,310,54,213,52,93,40,114,2
377,301,57,132,39,91,35,110,2
381,299,55,107,34,66,35,110,2
401,308,52,102,35,59,36,106,2
381,280,56,107,40,38,30,59,2
344,285,50,77,36,44,31,57,2
288,251,43,84,41,51,34,51,2
266,253,41,96,48,68,34,49,2
244,216,40,98,49,71,34,50,2
226,314,40,90,46,71,34,55,2
254,353,40,89,51,67,35,66,2
246,365,41,71,49,67,33,65,2
238,394,41,49,41,49,33,65,2
219,413,47,43,41,47,32,64,2
223,375,52,46,41,45,31,61,2
230,338,55,43,34,46,29,48,2
238,369,54,44,33,39,27,47,2
259,333,54,43,34,37,26,48,2
281,289,49,37,34,38,28,51,2
311,278,41,44,36,40,27,48,2
304,280,37,45,36,41,29,47,2
302,232,38,49,34,37,28,44,2
290,242,37,48,44,47,28,38,2
297,239,37,56,46,48,27,46,2
298,192,35,45,45,46,27,48,2
302,238,41,47,44,46,25,55,2
325,242,43,44,52,48,29,60,2
327,237,44,55,43,38,30,60,2
303,248,45,47,38,38,28,53,2
284,250,50,48,37,39,30,59,2
254,188,45,45,43,38,32,61,2
220,174,45,47,42,46,28,59,2
243,162,44,38,41,46,27,58,2
280,159,45,39,41,42,30,60,2
321,180,37,38,42,42,34,59,2
319,189,38,40,49,43,35,53,2
334,233,37,37,42,32,38,56,2
307,259,39,42,43,32,38,57,2
276,302,39,41,43,29,36,57,2
201,285,39,41,44,28,31,49,2
288,288,38,39,37,35,29,47,2
282,262,38,38,122,58,28,41,2
289,243,35,27,129,59,27,39,2
293,202,38,29,131,61,27,38,2
299,200,37,28,133,62,27,37,2
235,178,37,31,134,59,27,41,2
239,167,34,29,75,40,25,39,2
239,284,45,42,65,37,27,42,2
248,293,44,42,60,36,26,40,2
236,297,43,43,60,45,28,42,2
204,302,46,41,54,42,26,37,2
192,306,46,40,40,41,25,40,2
202,210,35,31,40,44,25,44,2
171,183,35,40,45,44,26,41,2
205,181,37,38,37,32,27,42,2
217,201,34,38,37,32,25,43,2
221,220,35,44,45,31,29,48,2
248,217,36,44,43,33,28,54,2
268,213,34,35,37,31,28,57,2
244,213,37,36,38,32,26,56,2
246,238,38,38,48,37,29,56,2
243,229,38,40,43,36,27,52,2
219,216,38,39,43,32,29,42,2
205,216,38,38,44,34,27,41,2
203,217,31,37,51,34,28,41,2
203,189,32,35,42,33,30,44,2
251,189,31,36,41,32,29,51,2
286,193,34,40,48,33,28,51,2
280,189,33,40,47,34,29,56,2
276,177,35,41,38,32,32,61,2
273,156,38,42,39,30,30,69,2
240,215,40,33,46,31,33,66,2
187,215,38,42,39,30,36,66,2
194,224,39,43,39,30,36,61,2
207,239,43,43,38,34,35,57,2
219,311,38,43,41,32,37,43,2
236,304,40,45,36,32,35,44,2
261,306,38,42,38,30,32,44,2
264,298,39,43,42,33,31,49,2
267,294,37,43,42,30,32,46,2
276,226,37,41,39,30,31,47,2
273,227,35,41,36,31,31,51,2
255,240,38,39,77,33,31,48,2
252,264,36,36,136,52,33,42,2
262,260,36,35,154,52,32,47,2
280,258,36,37,167,59,30,46,2
265,231,36,35,172,58,28,39,2
252,211,36,27,159,59,34,41,2
258,207,37,36,117,44,32,42,2
246,215,36,36,97,46,33,40,2
226,240,38,37,71,38,33,48,2
246,227,35,36,63,38,36,50,2
265,226,32,37,66,38,32,53,2
274,202,33,39,60,37,32,53,2
287,231,34,38,52,34,29,52,2
282,215,34,38,62,37,29,51,2
258,202,34,40,60,38,27,54,2
351,199,33,39,51,35,28,63,2
346,203,32,29,48,33,29,65,2
355,267,40,34,59,37,31,69,2
378,265,48,35,55,35,31,68,2
410,275,51,45,54,35,33,69,2
323,280,55,48,52,38,36,66,2
316,298,55,48,59,49,37,74,2
341,263,54,47,52,63,45,85,2
308,267,48,47,54,66,46,85,2
257,254,45,37,54,67,45,80,2
257,251,39,30,59,65,43,75,2
272,251,42,42,63,59,42,66,2
196,256,38,42,61,41,31,51,2
192,230,39,40,54,35,28,68,2
257,242,40,40,65,37,29,73,2
283,249,43,49,62,42,28,74,2
270,226,41,43,51,42,27,74,2
289,197,36,42,51,42,28,74,2
320,196,33,41,56,44,30,57,2
266,184,33,42,43,43,28,53,2
244,182,31,31,49,40,29,51,2
283,175,33,24,50,37,28,49,2
273,187,34,31,49,35,30,48,2
246,208,35,39,43,32,27,44,2
278,210,34,38,56,36,28,49,2
282,203,34,38,53,34,27,47,2
252,212,32,39,97,36,30,48,2
264,162,33,36,105,38,29,44,2
254,167,33,30,110,40,30,48,2
242,161,35,31,110,35,29,45,2
266,159,35,29,111,35,28,50,2
271,148,35,31,78,34,26,49,2
260,143,35,30,69,31,27,53,2
269,184,36,27,88,37,26,48,2
269,188,36,28,82,34,25,46,2
238,201,39,29,80,35,26,40,2
224,206,43,27,77,34,27,43,2
233,236,43,25,77,36,24,36,2
244,208,44,29,59,31,26,41,2
228,217,44,28,64,35,29,43,2
274,208,40,28,61,33,28,48,2
278,202,36,29,61,33,29,50,2
260,227,36,29,64,31,31,50,2
247,243,37,29,49,26,29,48,2
255,236,37,29,51,25,26,45,2
211,250,40,29,54,28,25,40,2
206,269,43,27,53,28,24,37,2
204,227,45,33,46,29,22,40,2
193,215,42,29,47,31,24,42,2
193,243,43,30,47,31,27,42,2
182,265,42,32,46,31,27,46,2
185,270,37,32,46,32,28,44,2
197,289,40,30,52,32,28,44,2
202,329,43,34,52,30,27,41,2
179,313,43,34,42,28,26,43,2
197,287,40,32,45,27,29,40,2
214,279,43,34,51,28,28,46,2
255,264,38,31,45,26,29,49,2
258,217,37,30,43,27,29,49,2
261,216,35,29,48,32,30,48,2
248,207,37,35,53,34,27,45,2
251,214,35,38,47,32,27,39,2
264,256,34,38,51,34,26,37,2
250,236,33,37,54,33,23,40,2
249,235,33,40,57,30,20,40,2
316,236,32,36,60,30,20,41,2
344,231,33,31,61,31,20,46,2
307,188,34,30,58,31,23,48,2
315,181,32,28,55,33,28,50,2
342,172,31,24,47,33,30,53,2
286,186,31,22,35,29,31,54,2
251,189,32,24,39,29,32,54,2
273,189,32,24,37,28,32,55,2
269,190,32,29,40,30,31,55,2
274,191,34,29,41,29,28,53,2
282,194,35,30,46,31,29,51,2
259,188,35,28,42,29,27,46,2
228,164,35,30,54,34,27,40,2
228,159,34,36,67,33,25,35,2
200,163,33,37,68,33,27,39,2
194,184,30,37,63,33,27,43,2
203,207,37,37,64,36,29,45,2
221,210,35,36,56,32,26,46,2
217,216,39,30,40,31,27,48,2
204,240,41,29,42,29,25,43,2
242,280,42,30,43,28,24,42,2
258,290,35,29,48,32,26,45,2
235,294,37,30,45,33,26,43,2
263,292,36,44,44,33,25,42,2
268,277,33,45,40,37,27,46,2
227,258,36,48,46,39,26,42,2
206,217,36,48,53,36,26,38,2
242,219,36,49,54,35,28,37,2
227,219,32,43,53,34,28,38,2
235,234,33,42,56,31,28,33,2
253,189,29,39,53,26,29,31,2
255,185,28,38,43,26,27,35,2
232,170,28,37,56,28,25,38,2
236,169,29,28,55,27,26,40,2
237,167,28,28,53,29,23,45,2
224,191,28,28,57,33,25,45,2
227,196,31,29,55,31,24,45,2
247,199,30,26,43,31,27,49,2
239,207,29,29,50,32,26,48,2
252,187,31,33,53,32,27,47,2
264,143,32,34,53,31,25,49,2
262,183,34,37,53,32,29,48,2
252,181,34,37,59,33,27,43,2
251,184,36,35,54,31,28,41,2
224,179,34,33,52,33,27,39,2
212,182,33,30,45,31,28,40,3
246,139,28,27,49,32,29,42,3
271,205,29,27,40,30,28,44,3
274,194,29,26,39,31,27,46,3
288,201,30,23,38,26,28,44,3
321,198,29,24,34,27,29,42,3
290,197,34,25,25,25,26,38,3
267,148,34,24,32,26,27,37,3
256,170,32,25,34,24,30,38,3
233,164,33,26,38,31,31,41,3
194,183,35,26,42,31,30,42,3
211,184,31,30,45,32,30,43,3
226,213,30,37,48,32,30,47,3
261,193,32,38,48,37,28,44,3
257,209,31,38,47,32,24,41,3
235,194,30,39,44,31,27,42,3
227,188,29,35,40,31,27,43,3
211,185,33,30,32,33,29,50,3
324,241,44,42,42,35,38,78,3
615,285,62,225,138,43,58,150,3
826,340,92,347,163,60,74,182,3
1026,399,151,595,237,110,117,310,3
1202,466,190,720,418,165,122,393,3
1304,643,270,837,460,202,137,473,3
1282,661,292,880,469,207,141,488,3
1279,654,302,879,466,214,156,550,3
1267,721,301,788,438,205,146,572,3
1211,815,310,776,471,203,167,559,3
1271,751,263,810,462,197,172,530,3
1223,755,265,753,460,196,169,529,3
1200,800,281,774,468,188,158,497,3
1182,761,296,871,529,190,148,427,3
1130,656,309,963,436,169,136,397,3
998,591,322,939,484,158,133,389,3
1149,647,328,1010,501,159,127,414,3
1072,604,356,1005,563,178,127,385,3
988,565,339,916,570,204,136,391,3
1011,532,309,772,530,188,127,413,3
1135,637,299,664,465,173,140,467,3
1036,631,285,591,497,176,142,433,3
1108,659,291,586,478,170,139,423,3
1259,744,297,581,417,131,133,438,3
1347,838,322,604,501,142,136,438,3
1280,800,336,696,546,166,122,367,3
1315,749,341,730,602,171,123,353,3
1282,783,291,751,560,156,130,408,3
1205,755,285,763,564,150,129,407,3
1171,715,283,801,547,149,125,386,3
1096,660,290,762,570,153,113,372,3
1167,665,320,914,458,154,114,413,3
1218,661,312,899,459,161,130,456,3
1199,649,330,999,559,181,136,458,3
1123,605,326,999,546,177,132,446,3
1199,620,309,976,516,181,138,461,3
1164,650,329,927,514,172,158,493,3
1264,643,343,983,542,173,152,477,3
1196,589,344,956,553,198,156,452,3
1225,569,347,1038,538,205,166,515,3
1157,635,340,1080,531,200,180,547,3
1125,642,279,980,532,200,171,528,3
1139,569,302,933,621,215,156,543,3
1170,593,351,871,580,188,148,544,3
1189,657,351,781,555,178,148,526,3
1251,657,368,734,582,161,146,515,3
1261,606,370,778,639,176,145,487,3
1103,596,361,816,591,164,151,397,3
1118,654,299,814,528,145,160,400,3
1039,614,271,761,575,144,153,350,3
949,535,261,850,644,157,129,297,3
950,569,293,876,668,184,126,349,3
948,583,334,897,637,179,138,405,3
1029,545,335,882,637,180,138,433,3
1062,529,348,979,714,188,138,437,3
1092,514,336,922,719,204,142,499,3
1076,515,314,832,660,171,146,505,3
1096,565,248,882,647,161,130,485,3
1020,521,237,964,716,170,115,471,3
1073,492,267,877,600,170,126,501,3
1122,523,273,855,464,132,139,468,3
1173,563,274,870,479,123,154,536,3
1112,505,306,806,644,168,163,526,3
1184,501,315,717,686,188,165,535,3
1232,575,300,681,688,184,165,548,3
1210,593,291,659,682,183,159,533,3
1112,543,314,683,820,220,131,403,3
1161,534,275,653,725,192,117,402,3
1089,545,266,635,685,187,126,394,3
1041,566,245,615,677,185,142,416,3
1036,570,277,640,830,235,157,462,3
1048,537,260,679,676,206,158,472,3
1075,547,291,625,636,205,191,511,3
1058,618,295,601,558,212,216,498,3
1061,540,320,723,603,225,201,469,3
1028,498,363,747,585,194,179,405,3
1042,518,376,756,640,196,180,409,3
1032,585,359,731,654,201,156,380,3
1092,531,353,745,717,205,109,369,3
978,519,329,659,744,216,106,310,3
949,521,257,657,605,198,113,307,3
980,516,208,548,555,197,119,289,3
892,443,202,538,597,197,126,273,3
801,388,207,529,558,161,121,254,3
904,415,204,486,562,135,121,315,3
964,529,185,410,554,133,126,374,3
927,558,192,413,569,126,143,426,3
992,545,190,545,660,138,126,415,3
1048,604,200,590,641,140,127,456,3
1092,683,232,612,603,141,146,509,3
1173,630,240,606,636,140,158,547,3
1104,580,261,627,621,147,141,523,3
1044,601,310,566,495,128,142,521,3
1003,577,325,651,503,136,142,525,3
1060,466,301,626,448,120,132,464,3
896,395,293,719,460,123,103,365,3
891,395,290,773,506,114,99,342,3
1016,379,231,790,464,110,101,371,3
1061,355,201,669,447,96,113,357,3
922,365,206,689,495,104,101,322,3
947,370,232,711,518,109,109,349,3
1037,500,222,669,457,111,126,374,3
1041,529,219,657,468,112,130,354,3
974,514,315,805,488,134,117,326,3
950,485,314,836,486,125,116,337,3
1033,539,312,745,389,122,124,343,3
1048,474,304,752,424,123,105,323,3
931,434,310,752,459,148,97,298,3
949,435,218,621,613,157,98,306,3
1028,555,238,641,602,169,118,375,3
964,517,225,664,603,165,116,363,3
867,476,272,731,604,175,114,361,3
890,488,282,703,728,174,111,358,3
984,493,267,676,602,156,114,386,3
1068,395,241,678,591,142,95,313,3
1082,418,237,684,607,143,78,297,3
1076,431,205,725,710,177,76,292,3
1119,498,220,761,564,155,107,388,3
1083,543,222,779,540,154,115,410,3
958,540,246,714,541,157,121,440,3
954,519,250,715,651,183,120,463,3
1086,576,253,752,565,163,129,489,3
1145,552,246,723,609,187,134,461,3
1090,511,248,742,652,193,133,428,3
1062,474,232,758,733,204,123,382,3
1130,527,239,801,645,189,130,386,3
1060,485,232,643,630,166,132,353,3
963,432,225,755,648,169,110,307,3
1062,563,234,788,706,196,103,278,3
1181,630,227,831,664,189,107,311,3
1111,593,233,768,636,184,110,279,3
1080,578,226,782,631,188,100,290,3
1097,575,214,720,580,193,101,287,3
1073,463,252,787,468,160,106,294,3
1028,387,271,725,384,151,117,283,3
1038,375,253,772,513,181,108,278,3
1052,381,251,802,524,182,105,256,3
1039,396,245,752,485,150,101,253,3
1143,386,195,650,462,150,103,310,3
1064,382,171,688,569,154,87,303,3
1066,373,236,637,525,126,84,297,3
1103,366,231,603,487,118,81,300,3
1159,359,246,637,510,120,86,336,3
1010,332,246,603,587,122,77,283,3
973,332,253,646,573,132,87,273,3
1017,363,204,688,581,127,88,289,3
1050,376,200,630,596,128,107,396,3
1081,406,173,601,608,145,102,377,3
1034,406,175,645,536,136,101,380,3
1080,425,215,589,440,125,103,390,3
1040,412,222,551,388,122,121,424,3
1026,442,236,580,418,134,118,350,3
910,418,254,605,394,120,122,363,3
945,433,316,642,441,137,122,357,3
1001,426,297,660,491,147,116,368,3
963,457,288,667,465,142,98,326,3
1028,421,269,663,470,132,89,368,3
1036,399,259,787,520,134,82,345,3
1040,433,200,740,488,119,87,339,3
1046,441,210,749,431,108,102,352,3
1176,391,211,711,463,106,110,356,3
1057,375,211,731,426,108,104,297,3
1048,379,205,627,448,107,103,298,3
1073,392,175,594,497,117,98,316,3
1041,398,145,531,549,129,78,277,3
867,405,164,627,524,130,66,254,3
897,428,202,656,550,135,80,248,3
966,463,201,615,475,126,80,258,3
1009,421,206,641,457,125,83,256,3
975,407,204,615,432,115,86,265,3
1012,427,247,565,464,115,84,279,3
1016,404,232,611,443,108,78,281,3
979,375,238,606,439,106,79,268,3
904,339,240,589,405,92,77,251,3
856,311,245,621,373,81,74,233,3
941,306,187,647,450,83,77,224,3
1000,336,168,617,484,102,78,240,3
998,340,185,649,491,107,75,229,3
1059,373,203,641,509,107,71,222,3
1161,424,190,633,541,109,71,220,3
1149,395,186,597,458,119,75,236,3
1037,407,202,511,416,101,84,224,3
1022,394,187,406,467,105,93,240,3
932,375,196,512,488,109,97,252,3
826,327,206,543,447,109,110,268,3
746,353,202,576,522,129,121,261,3
745,306,197,571,511,130,115,242,3
865,459,206,630,496,125,109,236,3
973,503,225,555,460,122,114,286,3
993,505,218,505,468,122,115,301,3
1004,507,231,503,433,96,103,304,3
1030,511,234,582,444,95,101,304,3
917,414,228,540,443,96,100,297,3
890,360,201,612,443,96,88,258,3
876,343,212,650,460,111,72,266,3
899,340,219,586,393,97,68,255,3
902,414,209,522,360,94,68,257,3
888,385,219,658,402,105,80,264,3
833,376,212,600,431,119,80,251,3
879,436,208,565,412,110,83,214,3
841,435,195,581,433,110,87,250,3
828,360,214,573,479,119,92,257,3
865,371,201,438,413,114,95,259,3
913,396,192,440,363,103,122,303,3
869,324,188,440,411,108,120,294,3
852,314,217,511,494,121,117,286,3
842,311,200,494,455,113,110,272,3
885,314,199,452,483,122,117,359,3
779,336,189,474,592,139,92,327,3
767,348,199,478,576,137,88,342,3
838,346,210,538,544,147,92,334,3
890,346,226,631,545,158,108,398,3
799,309,224,636,562,148,87,322,3
793,290,225,577,502,148,89,304,3
819,338,213,610,478,144,94,303,3
857,355,183,592,465,129,102,334,3
828,377,159,514,462,120,99,281,3
833,384,152,555,446,120,99,277,3
895,418,164,655,484,128,109,308,3
862,395,165,637,483,127,108,293,3
763,389,153,564,472,131,105,261,3
726,377,173,656,468,130,93,252,3
799,443,177,634,492,139,97,264,3
824,422,163,546,395,107,87,256,3
858,470,160,530,432,109,89,273,3
894,481,189,571,397,96,84,278,3
944,507,203,562,451,108,98,367,3
993,450,210,646,516,159,100,400,3
920,421,220,682,526,163,98,398,3
935,392,221,690,522,165,91,403,3
899,407,196,706,642,193,88,396,3
963,386,179,645,617,192,68,314,3
874,385,203,647,606,161,62,268,3
911,405,229,610,611,171,82,303,3
885,375,228,602,598,172,86,317,3
845,356,228,598,566,151,86,311,3
735,352,218,626,631,166,87,304,3
694,371,191,555,587,149,85,288,3
793,354,167,618,626,142,65,243,2
869,349,172,627,627,146,63,227,2
885,314,177,563,621,166,64,215,2
845,341,185,544,581,155,68,202,2
904,349,193,545,537,161,79,252,2
898,361,183,469,479,158,78,254,2
850,397,183,440,516,153,85,262,2
829,422,185,447,429,120,79,258,2
864,434,192,490,404,117,78,279,2
936,474,206,449,392,104,68,265,2
926,457,200,431,402,102,70,270,2
912,472,207,456,499,116,59,255,2
939,448,199,420,492,116,59,268,2
971,430,177,282,454,100,57,266,2
865,392,144,266,463,101,54,255,2
740,384,137,264,440,102,77,264,2
653,310,112,201,232,76,91,294,2
593,298,110,183,209,66,132,357,2
453,234,105,151,195,67,133,352,2
367,162,92,124,149,65,133,340,2
400,167,88,108,136,52,123,341,2
407,233,83,95,123,51,136,393,2
386,258,50,89,92,41,109,356,2
384,263,59,150,144,48,106,346,2
363,258,63,133,133,46,108,350,2
257,246,58,134,136,50,111,337,2
232,171,54,135,136,50,79,210,2
249,129,52,133,136,62,65,154,2
227,113,43,89,92,59,62,149,2
236,110,39,98,114,69,60,146,2
232,101,41,94,113,67,61,152,2
205,72,41,91,117,67,62,153,2
199,82,37,91,116,57,60,152,2
264,108,36,63,101,55,61,153,2
260,120,38,46,80,42,60,138,2
305,128,45,90,115,42,37,80,2
314,133,45,95,114,41,34,69,2
282,169,44,96,114,41,36,61,2
239,163,41,95,112,50,36,70,2
252,168,43,98,122,50,32,68,2
202,168,36,64,89,48,32,67,2
328,193,35,66,83,48,31,67,2
339,163,35,64,77,48,32,70,2
335,154,36,60,77,43,30,58,2
329,152,34,56,55,39,31,54,2
331,195,31,50,54,40,32,58,2
257,169,42,58,55,40,32,64,2
272,201,49,100,52,54,34,64,2
349,218,57,105,57,47,33,66,2
369,211,55,104,59,48,33,64,2
370,170,55,106,52,47,32,67,2
328,169,52,98,49,47,32,58,2
349,129,48,64,104,32,28,62,2
357,240,42,86,109,37,31,71,2
356,242,45,90,109,39,33,74,2
359,248,46,89,110,42,35,66,2
364,250,42,90,111,42,35,66,2
334,247,39,89,64,42,36,58,2
222,117,32,61,49,35,34,43,2
184,113,31,54,53,35,30,41,2
168,101,32,63,55,32,28,44,2
158,94,32,61,57,32,27,48,2
138,104,32,52,55,29,24,47,2
141,122,34,50,57,33,26,48,2
217,166,35,50,50,32,25,50,2
224,172,33,36,51,34,25,54,2
230,178,35,37,51,36,25,50,2
230,169,33,38,49,36,24,54,2
261,169,34,38,47,33,23,53,2
285,128,32,40,46,32,26,50,2
300,148,33,40,73,34,26,46,2
299,140,32,42,78,34,26,49,2
330,150,34,42,82,38,28,52,2
307,131,32,48,83,37,28,51,2
240,273,33,47,85,39,31,55,2
247,267,33,50,69,35,30,58,2
283,273,33,47,62,31,32,56,2
253,273,32,45,57,24,32,53,2
269,285,34,39,56,27,32,57,2
352,150,32,40,53,27,29,60,2
341,139,31,39,46,26,29,55,2
320,131,32,42,67,35,29,59,2
308,117,33,41,71,37,29,56,2
341,98,33,41,71,34,28,54,2
263,100,33,38,72,31,28,46,2
286,103,33,34,65,30,29,57,2
280,167,33,50,62,24,26,52,2
337,174,35,51,59,25,27,59,2
319,181,33,51,58,27,27,58,2
315,179,32,52,58,28,26,58,2
323,181,33,53,63,29,29,52,2
359,145,32,38,54,29,30,53,2
343,182,31,46,56,27,28,53,2
334,178,34,47,57,28,29,54,2
348,186,35,45,56,29,33,54,2
345,188,38,45,50,29,32,54,2
376,183,40,43,49,27,30,56,2
351,144,38,49,43,27,31,48,2
332,136,34,50,55,28,29,46,2
308,128,33,52,55,27,24,45,2
306,115,33,54,54,26,23,50,2
221,192,27,51,48,25,23,51,2
231,195,28,47,57,26,23,54,2
274,201,29,46,46,25,22,57,2
286,200,27,47,44,24,24,62,2
274,203,25,44,44,25,23,55,2
282,130,26,46,46,29,27,50,2
290,171,24,50,45,29,26,49,2
270,166,25,48,65,31,30,51,2
302,167,29,50,67,33,31,49,2
291,164,30,49,73,33,32,48,2
278,156,31,46,72,33,31,47,2
324,112,34,46,67,33,33,48,2
360,106,34,47,50,31,30,52,2
343,102,34,45,48,30,31,52,2
364,102,34,45,38,31,31,55,2
371,217,34,45,33,26,29,55,2
331,222,33,37,44,29,28,54,2
338,228,31,38,65,33,29,61,2
348,234,28,37,66,31,29,63,2
320,235,30,42,67,31,28,61,2
415,155,33,51,74,36,31,64,2
410,139,31,50,78,36,31,64,2
382,127,31,50,62,31,31,49,2
404,119,33,51,61,38,29,49,2
412,133,38,64,67,38,29,52,2
315,176,34,59,60,34,26,49,2
316,179,34,56,44,33,26,48,2
334,188,36,55,43,34,28,55,2
296,188,34,61,54,26,27,56,2
298,177,31,52,48,26,27,57,2
356,115,33,50,58,29,27,66,2
341,108,32,49,61,28,26,65,2
309,87,32,58,63,31,25,63,2
320,91,35,59,52,31,25,62,2
326,94,32,50,50,31,26,61,2
301,82,35,54,36,29,25,52,2
314,102,35,67,45,26,26,53,2
341,107,34,59,56,23,29,53,2
362,104,32,52,58,23,29,59,2
366,103,35,59,58,22,27,59,2
347,131,36,57,61,23,27,59,2
366,119,38,44,62,26,29,60,2
336,115,39,44,51,28,27,58,2
281,112,38,44,52,29,26,48,2
276,132,36,38,50,29,27,46,2
271,104,31,37,59,32,30,46,2
236,100,33,41,52,31,26,45,2
251,107,33,45,52,30,26,42,2
260,122,36,56,50,30,27,43,2
253,105,37,55,51,31,28,44,2
250,107,39,59,36,27,28,51,2
258,118,35,54,54,31,29,50,2
235,116,36,63,53,31,28,51,2
232,102,34,53,53,30,28,47,2
233,95,32,51,53,29,27,46,2
225,90,29,49,53,31,28,37,2
207,74,29,49,47,28,26,38,2
203,86,27,35,49,27,28,38,2
194,80,29,43,49,27,28,41,2
166,77,27,42,50,26,28,39,2
168,75,27,39,51,22,25,41,2
168,75,28,38,33,23,27,46,2
173,51,27,37,33,23,24,50,2
187,55,28,31,31,25,26,48,2
227,52,28,41,27,24,26,49,2
235,54,27,39,25,26,26,51,2
247,53,29,42,27,23,28,46,2
245,60,29,41,25,26,31,47,2
247,70,26,39,25,25,30,48,2
239,74,25,32,42,29,30,49,2
224,80,27,48,45,30,31,53,2
229,82,25,46,52,33,30,51,2
243,79,27,47,54,33,31,51,2
245,68,28,47,64,35,31,50,2
213,67,34,56,56,32,32,49,2
389,104,38,52,54,29,32,54,2
395,110,40,53,48,29,33,57,2
391,110,40,53,46,28,28,53,2
424,115,42,56,31,25,30,56,2
448,115,37,54,40,26,28,56,2
318,78,33,45,40,26,28,45,2
305,72,30,48,39,25,25,45,2
375,102,30,50,39,27,27,56,2
360,100,27,55,41,28,27,63,2
339,101,28,47,29,26,27,62,2
366,101,27,49,58,29,25,62,2
393,96,33,50,60,29,27,62,2
383,78,34,49,63,29,27,62,2
396,86,34,50,62,29,26,56,2
408,81,33,50,63,29,25,55,2
395,87,34,51,55,30,27,56,2
374,95,30,48,60,31,27,62,2
321,92,35,54,57,27,29,53,2
284,81,35,45,58,27,30,50,2
257,82,35,44,58,29,31,53,2
246,76,35,44,45,26,33,49,2
243,77,33,57,36,26,31,41,2
239,77,30,55,47,30,29,37,2
221,79,33,59,50,31,28,39,2
233,78,32,59,50,32,27,35,2
198,77,32,57,48,31,26,37,2
210,76,32,44,47,29,26,40,2
247,71,30,50,37,25,26,42,2
258,93,30,49,31,22,25,41,2
258,97,30,49,47,24,26,45,2
267,98,33,49,50,26,24,45,2
280,103,33,49,50,26,23,44,2
260,102,30,38,49,28,25,44,2
286,98,29,50,49,29,24,51,2
296,97,29,50,34,26,26,49,2
321,98,28,54,29,27,26,47,2
293,85,29,56,29,29,27,45,2
370,88,29,57,27,27,27,50,2
376,71,31,52,28,28,27,45,2
387,76,29,50,29,27,27,51,2
366,77,30,46,40,30,28,51,2
390,78,29,46,40,29,27,52,2
312,70,30,57,42,32,28,46,2
270,68,27,48,42,31,28,47,2
229,60,28,50,42,31,27,47,2
242,63,29,49,46,26,26,47,2
225,67,31,48,48,26,26,47,2
205,66,32,48,47,22,24,46,2
218,62,31,49,47,22,24,41,2
278,61,32,49,57,25,23,40,2
277,62,30,51,46,24,23,40,2
268,63,30,53,46,27,24,40,2
312,66,30,44,46,27,22,41,2
312,67,35,56,46,27,25,42,2
268,67,33,57,31,25,27,36,2
256,58,33,56,31,24,27,37,2
273,50,33,53,29,24,26,39,2
232,55,30,47,28,26,27,39,2
245,58,26,41,25,25,24,42,2
278,61,29,40,24,23,22,44,2
285,63,28,40,24,24,22,43,2
276,67,29,41,23,24,21,46,2
280,65,32,40,23,24,20,48,2
269,68,33,29,24,26,23,45,2
258,68,31,29,26,28,25,52,2
264,82,32,31,25,29,25,56,2
261,83,35,53,28,28,27,52,2
309,82,31,54,28,29,27,54,2
333,82,30,56,29,27,27,58,2
319,80,29,56,29,26,25,57,2
337,89,30,55,28,27,27,55,2
372,86,30,50,30,27,27,54,2
328,86,31,49,31,24,26,50,2
337,85,31,47,32,24,26,49,2
325,85,33,46,31,22,27,40,2
289,61,31,46,33,23,24,39,2
287,64,28,42,29,23,22,48,2
288,62,29,48,28,24,26,49,2
256,55,27,47,24,25,23,44,2
272,55,26,47,26,25,22,47,2
331,75,29,50,25,25,23,52,2
281,82,29,39,29,24,28,49,2
272,83,27,37,29,26,27,47,2
271,85,31,50,29,26,28,49,2
292,86,31,51,27,27,28,49,2
235,72,29,47,28,25,28,44,1
252,64,30,48,26,24,23,46,1
281,66,30,47,26,22,21,51,1
308,76,27,32,27,22,22,51,1
277,76,28,32,29,22,22,48,1
299,72,26,46,29,25,22,56,1
324,69,27,47,27,29,24,55,1
314,64,29,46,25,29,24,50,1
275,51,29,48,26,30,24,49,1
288,64,26,50,25,29,25,49,1
302,73,28,37,25,29,24,40,1
261,75,28,52,29,29,25,36,1
254,79,28,52,30,29,25,40,1
283,80,28,51,28,27,23,41,1
279,71,29,49,30,29,23,42,1
227,65,31,54,29,27,25,41,1
217,61,30,59,28,23,25,40,1
283,60,32,63,28,21,25,50,1
297,65,33,64,28,24,27,50,1
341,98,32,73,28,25,30,63,1
371,198,60,72,54,28,29,66,1
397,209,74,60,67,32,31,69,1
358,216,161,74,76,39,33,62,1
322,230,250,129,102,52,34,62,1
271,247,384,166,114,66,37,54,1
250,236,543,208,136,113,39,59,1
233,249,724,219,348,165,45,79,1
338,271,729,236,520,213,51,90,1
360,398,841,300,532,221,59,114,1
408,427,922,302,532,225,70,203,1
477,445,868,329,538,211,100,294,1
484,450,781,365,454,188,163,498,1
442,465,819,365,353,182,166,520,1
548,420,792,382,399,204,164,525,1
543,389,730,382,432,261,213,557,1
545,544,872,429,442,264,239,640,1
582,616,939,427,445,268,293,677,1
573,686,1104,662,497,248,370,814,1
552,858,1193,729,578,241,440,948,1
532,984,1251,768,722,193,454,1027,1
507,1029,1222,751,756,221,460,1083,1
485,1072,1293,827,816,212,422,1082,1
489,1152,1170,676,830,271,374,1043,1
431,1103,1101,580,780,303,346,1002,1
428,1059,1225,699,811,316,307,924,1
392,988,1218,853,869,314,289,855,1
357,950,1192,816,955,337,293,857,1
341,857,1417,836,983,309,294,829,1
295,766,1467,874,1047,299,319,925,1
309,700,1336,795,992,298,329,987,1
295,643,1335,644,934,292,322,966,1
282,624,1306,628,882,327,328,971,1
298,541,1111,580,778,315,337,965,1
276,541,1007,521,732,288,288,950,1
245,504,985,468,648,275,273,914,1
251,514,1069,512,723,279,279,919,1
307,450,1046,462,640,223,326,924,1
315,461,1073,476,657,218,327,954,1
319,478,1153,501,633,231,297,805,1
321,485,1123,505,633,228,329,836,1
435,426,1052,401,521,206,335,867,1
414,421,1057,393,464,188,263,746,1
387,391,970,414,495,191,226,723,1
384,388,871,406,479,172,234,790,1
381,390,1041,404,526,178,214,789,1
268,408,1000,465,511,190,214,779,1
241,430,938,482,578,197,222,827,1
240,458,1032,504,525,190,265,861,1
265,420,1047,510,518,209,284,985,1
279,418,1033,510,473,191,262,912,1
242,462,1111,463,524,193,250,921,1
256,446,1128,456,572,183,246,911,1
281,401,1029,393,569,192,247,952,1
260,372,1057,361,617,168,223,795,1
285,423,1070,361,612,169,239,831,1
289,381,1039,355,577,155,247,782,1
294,385,1072,383,477,176,249,751,1
275,394,1138,456,529,189,213,725,1
289,415,1189,558,633,201,244,871,1
274,367,1090,549,647,204,255,872,1
290,361,1100,558,729,212,242,846,1
278,338,1069,547,840,214,245,882,1
272,329,1041,496,855,197,245,827,1
258,286,952,366,716,200,220,667,1
227,333,920,337,741,215,199,660,1
194,330,900,295,653,211,218,754,1
191,315,967,279,484,196,250,772,1
190,315,1024,318,495,190,239,714,1
172,323,992,326,516,184,224,670,1
190,237,1019,325,461,169,229,753,1
200,214,970,337,523,165,245,697,1
184,211,892,322,542,170,215,645,1
181,204,840,315,499,164,213,695,1
208,209,905,301,492,150,225,705,1
202,230,878,295,511,163,227,655,1
177,228,842,292,473,190,183,609,1
201,242,870,295,532,191,172,579,1
204,248,839,276,563,209,188,599,1
185,242,817,281,551,211,177,591,1
173,222,929,273,595,196,153,509,1
178,204,1001,270,581,168,147,510,1
160,184,947,278,510,152,151,571,1
164,171,939,243,474,129,136,523,1
158,151,892,224,467,124,125,516,1
147,156,858,234,373,118,120,546,1
151,181,868,271,395,106,138,579,1
155,190,1003,268,391,96,139,579,1
137,189,991,270,357,87,137,577,1
136,208,1047,304,344,86,162,642,1
162,204,945,302,319,86,173,635,1
178,197,907,303,371,97,170,639,1
167,185,841,314,373,111,154,617,1
176,196,1010,356,386,136,169,628,1
193,187,1007,338,413,153,173,647,1
190,181,1051,342,491,169,169,669,1
180,176,1059,320,529,169,164,640,1
208,181,1053,320,575,172,171,605,1
214,181,927,325,685,176,157,590,1
227,180,914,331,700,169,149,594,1
261,180,1017,331,708,155,164,637,1
271,178,1057,342,667,200,187,696,1
282,185,1015,362,678,211,197,809,1
314,205,1001,322,574,201,242,875,1
293,205,995,374,713,213,243,853,1
264,207,909,432,725,242,252,916,1
278,205,945,419,752,214,270,971,1
253,243,1055,423,732,214,317,975,1
225,242,1150,500,820,268,305,978,1
239,261,1272,559,722,257,300,950,1
246,274,1316,554,718,245,292,867,1
254,273,1265,554,670,236,258,786,1
251,229,1228,532,717,222,181,659,1
227,222,1197,499,681,152,141,526,1
248,199,1088,378,649,171,208,618,1
237,194,1038,335,618,143,215,626,1
197,189,988,345,629,142,224,622,1
199,192,992,356,623,141,226,627,1
213,175,928,290,544,141,221,637,1
182,176,938,335,595,123,159,562,1
187,152,887,320,561,133,145,483,1
182,150,901,306,566,131,122,419,1
172,158,810,324,647,134,116,424,1
151,151,756,312,621,129,154,528,1
145,139,676,289,604,118,153,555,1
134,135,746,337,666,120,160,659,1
138,139,806,351,673,135,161,653,1
159,141,826,329,588,156,184,703,1
173,157,853,330,586,156,169,685,1
180,150,844,323,620,159,175,667,1
169,153,800,306,560,150,153,551,1
178,143,759,322,566,153,217,738,1
180,137,885,300,524,126,217,757,1
181,124,867,311,624,132,229,823,1
170,150,909,384,682,202,223,794,1
194,156,981,413,788,252,243,900,1
203,175,955,416,931,268,201,813,1
180,185,821,425,997,290,198,768,1
169,193,824,493,1056,324,185,665,1
234,176,795,457,1048,289,259,800,1
239,176,817,435,1018,255,244,734,1
227,171,858,462,983,307,250,727,1
248,180,929,611,936,303,253,740,1
276,182,975,609,910,306,320,904,1
235,191,1093,681,911,324,313,934,1
236,200,1092,711,955,331,325,946,1
257,237,1238,747,876,292,331,972,1
273,234,1262,672,890,318,370,1035,1
257,254,1308,690,803,312,328,925,1
251,298,1259,628,782,374,314,868,1
238,322,1236,614,689,431,313,929,1
235,309,1139,565,705,439,330,965,1
206,303,1096,517,676,429,280,892,1
191,314,1095,483,691,421,259,843,1
220,305,1054,520,721,381,258,834,1
236,329,993,520,692,315,339,905,1
243,399,991,543,679,302,375,893,1
247,407,999,565,782,279,382,928,1
271,410,994,574,774,256,430,1045,1
282,405,999,540,743,218,478,1085,1
273,380,1046,565,838,207,426,947,1
266,353,1167,598,824,241,383,867,1
262,375,1336,618,713,294,422,892,1
251,357,1296,627,682,293,399,912,1
212,340,1296,608,672,291,317,791,1
201,343,1293,556,655,288,303,804,1
184,291,1233,484,651,230,352,952,1
174,290,1102,446,668,173,321,927,1
160,309,1084,398,731,186,318,856,1
169,322,1086,445,751,182,329,919,1
182,305,1025,469,692,184,334,911,1
204,305,991,459,662,192,267,884,1
214,307,962,509,678,179,226,839,1
224,312,1002,530,686,179,185,830,1
228,316,988,502,609,170,165,842,1
272,310,1020,485,581,164,178,876,1
253,327,966,498,626,167,175,724,1
262,303,1019,484,604,192,246,803,1
261,301,1055,460,584,178,272,854,1
246,318,1061,481,577,172,267,786,1
183,378,1119,529,591,191,263,742,1
193,356,1187,543,529,187,263,815,1
216,381,1107,494,472,154,250,821,1
222,354,1004,473,392,158,231,798,1
229,344,1061,447,368,158,236,823,1
244,303,1016,415,483,148,221,810,1
254,315,898,376,506,135,228,865,1
223,278,1055,423,527,140,192,821,1
216,293,1154,467,581,161,176,704,1
224,270,1075,467,577,173,199,711,1
276,285,1088,456,536,187,263,880,1
283,307,1107,459,537,186,269,817,1
280,415,994,467,615,186,258,769,1
271,424,1017,490,598,190,260,771,1
274,446,1041,497,668,231,326,822,1
206,422,1082,496,616,247,381,661,1
169,412,1196,535,639,286,417,579,1
174,373,1244,580,572,318,495,830,1
201,356,1139,529,564,317,549,945,1
170,323,1098,526,602,285,508,888,1
171,326,1032,529,588,256,440,875,1
174,310,1013,514,623,222,409,933,1
193,262,1034,479,647,185,343,874,1
209,314,1103,524,760,171,303,805,1
226,348,1230,517,682,193,320,773,1
249,354,1260,510,785,207,359,883,1
262,373,1171,477,766,214,373,893,1
248,368,1121,429,788,219,398,851,1
211,326,1117,405,678,232,376,819,1
205,304,1033,448,746,233,368,879,1
186,318,1046,449,651,245,359,818,1
176,322,1165,532,644,255,344,772,1
165,307,1118,543,575,242,302,674,1
167,296,1134,622,627,232,287,668,1
155,277,1098,605,601,227,304,666,1
150,242,1006,587,567,194,274,587,1
129,230,853,531,602,184,267,538,1
128,236,794,500,612,186,236,512,1
115,231,705,362,530,177,235,524,1
114,231,743,317,456,196,222,466,1
97,234,835,299,548,210,211,443,1
99,217,888,262,483,206,207,483,1
102,216,899,265,453,209,218,523,1
133,223,972,238,527,210,207,489,1
132,226,959,272,630,181,157,417,1
141,241,923,326,634,185,163,497,1
137,236,928,326,647,165,170,515,1
142,200,1077,358,709,152,167,474,1
117,188,1047,377,689,156,157,449,1
113,188,1031,345,631,156,159,455,1
121,159,1045,314,600,166,171,547,1
113,137,975,292,569,167,143,557,1
98,135,851,252,548,178,135,541,1
93,135,792,241,566,174,148,537,1
106,154,862,254,536,177,162,614,1
105,146,821,247,509,153,144,479,1
109,145,904,254,523,170,156,407,1
122,138,902,256,508,171,157,484,2
134,133,939,280,505,175,176,584,2
119,113,965,262,519,163,167,500,2
112,122,1016,298,544,191,208,535,2
115,122,967,294,619,186,233,563,2
117,140,1000,310,701,176,259,569,2
105,142,958,275,692,201,242,468,2
111,146,920,310,743,213,243,479,2
105,149,877,279,730,188,245,432,2
120,142,841,347,678,188,237,508,2
111,147,850,355,604,187,211,473,2
119,150,822,365,565,158,209,476,2
128,154,794,347,483,141,212,480,2
122,146,780,330,444,256,160,484,2
99,146,745,293,444,323,127,356,2
91,132,591,253,406,331,116,274,2
175,176,577,237,390,347,139,259,2
551,327,444,242,353,368,156,224,2
690,613,362,310,371,483,201,221,2
845,848,319,324,304,493,200,220,2
962,919,283,551,250,536,236,249,2
989,985,240,674,270,550,253,268,2
1060,1143,276,715,252,569,294,295,2
1122,1147,288,768,238,452,304,328,2
1142,1033,319,959,218,405,311,328,2
1120,988,314,865,216,398,289,312,2
1215,965,301,782,170,363,264,303,2
1119,836,265,745,157,314,201,269,2
1006,714,205,668,109,272,134,185,2
872,655,132,296,93,251,104,156,2
887,655,114,244,61,126,84,154,2
895,588,94,191,52,118,76,145,2
828,419,73,152,52,100,63,128,2
798,317,67,139,63,87,65,134,2
913,313,68,126,68,73,65,181,2
921,260,77,181,73,113,73,186,2
774,240,74,188,75,129,74,182,2
783,228,71,195,108,129,79,182,2
837,222,76,179,100,129,77,183,2
762,218,77,180,98,128,79,146,2
633,204,68,121,94,92,73,132,2
587,190,63,111,94,79,68,125,2
535,166,60,90,46,80,60,131,2
516,160,48,77,41,82,56,124,2
456,131,43,66,40,81,70,125,2
440,133,40,50,40,85,81,123,2
451,141,41,42,40,79,81,124,2
431,139,42,39,40,73,80,119,2
348,104,43,39,42,67,77,101,2
352,99,42,41,43,66,60,92,2
377,99,38,41,42,68,40,91,2
394,92,40,50,34,58,38,85,2
433,108,39,54,48,59,35,74,2
462,109,42,57,48,59,38,76,2
492,124,45,57,47,61,42,69,2
498,135,52,56,47,52,44,73,2
473,131,49,50,49,52,45,72,2
447,121,49,50,33,45,46,67,2
526,130,44,51,36,39,41,85,2
467,113,42,48,35,36,37,85,2
457,103,33,55,36,32,33,80,2
473,105,34,53,35,37,31,84,2
453,102,32,49,34,38,31,87,2
326,92,32,48,37,39,29,73,2
331,97,33,62,48,40,27,71,2
304,93,33,55,48,43,29,71,2
313,110,34,53,48,50,29,71,2
303,117,36,63,55,50,28,67,2
274,109,38,62,51,49,27,53,2
313,102,36,48,41,51,27,56,2
345,111,41,55,39,48,29,63,2
325,92,41,61,44,38,28,60,2
328,82,42,50,46,39,28,62,2
341,84,44,50,46,37,30,62,2
291,83,45,58,50,36,33,57,2
280,73,41,53,52,43,33,51,2
299,75,40,44,53,55,34,50,2
354,84,38,53,52,57,34,44,2
338,77,34,52,52,60,33,43,2
341,76,33,43,50,59,28,46,2
375,70,30,43,53,58,27,54,2
352,71,33,48,54,47,27,53,2
301,60,34,40,63,45,27,53,2
311,70,40,44,64,49,32,63,2
307,66,39,53,64,47,31,64,2
264,69,42,54,62,46,31,63,2
289,69,38,49,59,45,30,64,2
286,67,36,47,48,42,33,67,2
284,59,30,56,46,36,28,60,2
301,57,31,46,47,36,30,53,2
311,58,29,47,49,34,29,45,2
325,54,30,48,48,33,27,44,2
342,57,31,59,40,38,24,56,2
352,61,32,48,65,46,27,59,2
405,67,31,48,66,48,24,68,2
395,64,29,48,65,45,23,69,2
396,67,35,54,66,51,26,71,2
385,64,37,40,72,51,27,62,2
381,59,36,39,51,43,26,60,2
302,54,37,40,49,42,30,53,2
272,59,37,45,60,43,31,51,2
224,57,33,44,61,38,32,54,2
228,60,30,45,53,35,34,55,2
215,61,30,45,53,35,32,51,2
192,57,29,48,53,34,30,48,2
245,55,28,50,43,32,29,51,2
322,56,28,50,51,34,28,47,2
305,52,29,53,50,29,26,43,2
307,50,31,54,52,29,29,44,2
308,49,30,53,55,31,30,44,2
304,45,34,56,52,41,30,50,2
231,47,35,52,43,42,29,50,2
231,49,33,47,44,43,31,52,2
269,60,34,64,63,46,30,54,2
275,61,35,64,62,47,31,54,2
257,60,32,56,61,37,30,50,2
286,68,31,55,64,35,29,51,2
291,72,33,59,67,36,29,51,2
259,76,34,52,47,32,29,51,2
267,79,34,50,46,28,31,58,2
284,82,34,50,52,31,33,61,2
307,81,34,56,50,30,37,61,2
330,79,34,53,45,30,36,60,2
333,68,30,44,44,29,36,60,2
317,64,29,47,43,30,34,53,2
303,63,27,53,41,28,31,50,2
261,57,30,49,39,30,31,45,2
260,62,34,54,40,29,30,45,2
257,62,32,59,46,29,30,46,2
283,64,32,59,50,29,29,48,2
275,60,33,53,49,32,34,43,2
306,56,30,52,49,29,29,46,2
293,56,26,57,49,29,30,45,2
282,54,27,51,51,31,30,43,2
263,57,31,48,46,31,28,44,2
263,58,30,58,42,30,24,43,2
245,58,30,57,41,29,26,41,2
269,57,31,47,40,30,26,43,2
312,62,32,45,37,30,28,46,2
325,57,30,54,46,34,31,43,2
359,63,30,44,47,32,31,43,2
328,61,30,45,48,33,30,43,2
329,52,29,44,54,32,29,40,2
302,51,29,52,51,30,27,39,2
289,53,30,44,54,28,28,41,2
256,47,29,42,57,29,28,39,2
306,51,29,41,55,31,28,43,2
301,59,30,49,51,31,29,44,2
340,64,30,42,50,30,32,60,2
343,68,30,47,39,30,34,64,2
340,68,31,47,39,32,33,65,2
313,65,31,60,51,30,33,63,2
319,63,31,58,54,31,32,63,2
343,62,33,60,63,32,28,53,2
378,66,32,64,62,33,27,54,2
383,68,31,63,60,29,25,55,2
377,73,33,52,57,33,25,53,2
358,71,32,48,56,32,26,52,2
320,68,31,53,46,33,25,46,2
272,59,33,46,47,32,25,38,2
267,58,33,47,50,36,30,37,2
284,53,32,47,46,33,33,39,2
298,50,32,55,52,36,31,39,2
264,48,30,47,53,36,33,40,2
266,52,30,46,53,36,34,41,2
286,55,29,48,52,34,28,40,2
281,57,30,54,50,35,27,46,2
283,58,28,46,47,37,30,46,2
296,60,31,51,51,37,27,45,2
325,60,29,50,50,34,28,44,2
293,56,31,57,49,34,28,48,2
337,52,30,54,50,32,28,42,2
331,54,31,53,61,28,26,46,2
319,60,29,58,57,27,31,45,2
285,65,28,58,59,30,30,45,2
314,70,29,53,66,31,29,44,2
258,69,28,53,67,31,31,43,2
228,66,27,52,51,30,30,38,2
225,56,29,53,61,34,27,39,2
240,45,27,53,60,30,27,40,2
209,38,27,51,50,29,27,37,2
186,44,26,47,48,30,26,40,2
207,56,28,51,50,29,25,40,2
220,63,29,49,78,33,25,39,2
206,63,30,49,78,32,27,37,2
204,66,29,49,78,34,27,39,2
296,69,29,50,85,33,26,36,2
292,63,26,52,86,34,25,41,2
277,57,28,45,57,27,26,40,2
283,61,28,43,62,28,26,40,2
314,62,27,40,61,29,28,36,2
260,58,29,51,52,28,27,40,2
314,60,30,43,53,29,30,39,2
335,63,27,45,57,34,28,40,2
332,67,30,48,50,35,25,44,2
310,64,30,56,53,34,24,48,2
308,61,28,49,52,36,25,49,2
237,56,29,50,50,35,23,47,2
219,53,35,52,48,31,25,46,2
260,47,32,59,49,31,27,41,2
255,48,32,53,51,31,26,43,2
260,49,33,51,51,32,26,40,2
302,50,33,50,50,32,26,42,2
356,56,26,57,42,30,27,51,2
332,56,28,48,50,34,26,56,2
334,53,29,48,49,34,27,54,2
362,59,28,48,48,34,27,58,2
352,70,33,58,48,32,30,59,2
292,66,34,49,53,35,29,51,2
301,71,34,47,45,30,30,45,2
304,70,34,46,52,33,29,43,2
247,76,38,59,57,31,34,43,2
220,68,34,50,58,34,34,46,2
276,71,33,50,65,35,35,45,2
298,67,32,49,65,35,35,52,2
290,70,33,51,60,31,35,53,2
285,59,30,45,61,39,33,47,2
278,55,29,45,59,39,30,40,2
271,49,29,46,49,36,27,43,2
234,46,28,46,52,36,26,37,2
220,45,26,46,53,40,28,40,2
216,50,32,53,48,31,25,39,2
226,49,30,53,47,30,25,40,2
254,49,32,52,50,31,26,49,2
288,55,34,51,57,32,30,50,2
295,55,33,58,54,27,27,45,2
310,48,27,42,53,27,29,49,2
324,54,27,43,52,28,31,49,2
292,60,26,46,46,25,30,38,2
245,59,34,49,30,25,27,33,2
234,58,35,39,29,27,26,35,2
228,59,34,50,28,26,26,34,2
212,65,35,49,29,25,24,35,2
170,65,36,44,36,25,25,37,2
176,64,31,40,47,27,27,35,2
207,66,31,41,48,27,28,34,2
210,67,33,27,47,27,27,34,2
197,57,32,29,47,29,31,34,2
196,50,30,32,41,31,32,32,2
223,46,28,40,32,30,30,33,2
216,47,29,40,49,30,30,37,2
219,45,27,41,52,32,30,39,2
248,47,29,49,55,35,29,40,2
266,48,29,50,59,33,27,42,2
249,50,30,46,57,34,29,44,2
270,54,30,45,43,33,28,42,2
257,53,29,51,42,31,31,39,2
256,54,28,40,37,25,27,36,2
251,53,28,43,32,28,29,37,2
279,51,25,38,63,33,29,39,2
247,46,26,41,65,34,28,42,2
251,47,28,49,65,36,26,40,2
263,43,32,50,71,38,27,45,2
257,41,31,49,72,37,26,46,2
235,43,32,49,49,30,27,43,2
231,48,30,50,47,29,29,40,2
237,48,32,35,54,26,26,44,2
248,51,32,43,57,30,26,38,2
246,61,33,40,55,30,24,36,3
297,65,35,41,56,32,25,38,3
296,62,37,37,55,33,23,40,3
293,64,36,38,45,33,25,38,3
325,90,40,37,33,28,27,56,3
328,88,41,39,34,28,28,57,3
282,87,40,39,32,25,27,59,3
