Channel 0,Channel 1,Channel 2,Channel 3,Channel 4,Channel 5,Channel 6,Channel 7,actionCategry
150,289,116,159,117,28,133,276,0
114,280,132,131,88,29,104,218,0
105,248,131,111,76,28,91,183,0
94,267,115,92,60,29,67,142,0
80,243,110,77,47,27,55,106,0
74,204,115,61,42,27,40,77,0
69,213,104,55,38,24,38,62,0
51,212,93,46,37,26,32,57,0
49,163,94,46,35,22,29,50,0
60,181,93,41,32,22,30,40,0
73,205,90,33,29,22,29,45,0
92,199,102,38,29,25,29,46,0
97,251,113,49,30,26,28,44,0
108,252,109,60,32,27,30,45,0
114,228,110,66,33,28,30,47,0
108,229,108,66,30,27,30,41,0
93,228,87,63,32,24,30,38,0
88,190,82,59,34,24,32,48,0
71,186,77,46,33,25,32,49,0
93,188,109,51,31,27,33,53,0
90,165,110,53,33,28,34,53,0
88,162,114,56,33,29,31,54,0
88,133,127,54,30,27,30,47,1
89,146,128,59,29,27,33,47,1
45,153,112,51,30,25,28,43,1
63,157,105,51,30,26,26,45,1
63,147,106,48,28,28,25,44,1
64,146,95,46,29,27,25,44,1
71,174,100,40,28,29,26,44,1
72,169,105,38,27,28,25,43,1
58,174,105,37,26,27,27,39,1
92,172,100,37,25,25,29,43,1
94,167,113,41,28,28,28,45,1
91,149,119,42,29,27,27,44,1
91,171,110,50,29,25,29,44,1
88,166,114,51,31,26,26,45,1
62,157,118,52,34,26,27,43,1
56,155,124,50,32,26,29,44,1
55,132,115,53,31,25,27,43,1
53,111,112,45,32,24,27,40,1
53,115,114,47,32,25,30,41,1
41,122,109,48,30,26,31,35,1
49,141,92,48,28,24,29,36,1
47,143,100,45,30,26,30,38,1
47,140,104,51,30,26,29,44,1
46,134,103,54,28,26,30,40,1
67,134,104,52,29,25,26,43,1
63,112,97,51,30,25,26,40,1
63,111,112,50,29,23,24,37,1
63,113,139,50,31,23,26,33,1
66,149,160,61,36,27,28,39,1
51,212,167,63,36,30,30,41,1
50,219,164,63,38,30,33,43,1
47,224,149,64,37,32,35,43,1
47,224,148,71,36,34,33,41,1
63,226,144,65,37,32,36,46,1
58,177,138,65,38,35,36,48,1
66,170,140,65,35,69,83,51,1
91,183,224,126,56,93,120,147,1
103,192,267,137,61,118,186,301,1
111,178,281,161,231,191,210,407,1
166,208,299,205,275,353,511,631,1
216,224,411,245,298,449,597,698,1
216,259,410,224,318,510,732,877,1
219,357,440,236,326,515,735,854,1
259,359,502,231,262,541,803,850,1
336,364,539,224,232,526,724,718,1
331,364,531,222,229,472,667,707,1
351,332,539,226,208,455,602,621,1
381,216,530,217,228,492,694,725,1
401,219,568,217,202,462,660,749,1
661,193,632,215,212,482,663,811,1
858,191,617,180,190,498,671,781,1
989,208,631,179,184,462,622,799,1
1134,210,641,180,176,440,548,757,1
1133,191,567,175,187,425,492,711,1
979,198,501,153,178,316,387,640,1
820,252,475,149,178,251,376,673,1
663,292,460,147,172,237,341,531,1
364,293,438,143,164,229,278,476,1
317,297,478,140,167,221,274,514,1
306,294,445,135,151,212,276,511,1
261,276,486,143,162,214,277,491,1
219,216,481,141,168,205,267,500,1
178,217,451,127,169,178,254,501,1
188,214,519,134,155,179,252,449,1
193,199,535,120,147,176,240,477,1
203,149,506,110,157,169,211,478,1
192,154,527,103,169,199,231,462,1
205,149,553,104,144,190,234,469,1
213,145,519,90,142,190,257,513,1
230,134,530,105,148,191,263,520,1
221,133,535,106,131,251,252,513,1
226,131,503,109,114,277,271,605,1
210,133,508,130,115,280,274,612,1
209,141,468,136,129,287,267,680,1
178,148,435,140,144,297,288,752,1
182,150,485,147,147,249,295,772,1
196,152,611,206,155,205,269,726,1
221,154,612,209,186,193,290,792,1
213,151,620,229,201,246,308,737,1
261,163,726,249,204,249,293,728,1
261,165,688,245,200,254,351,823,1
279,165,574,207,199,256,357,839,1
258,158,602,193,185,276,347,778,1
279,155,591,174,168,241,336,799,1
240,137,456,135,149,225,342,750,1
255,136,438,133,143,218,289,634,1
230,158,559,144,147,224,275,569,1
239,163,564,146,131,204,269,558,1
216,161,564,129,140,176,260,492,1
213,165,587,127,138,172,244,452,1
191,153,635,137,133,172,222,391,1
193,129,546,112,118,149,230,387,1
180,115,531,111,119,175,216,349,1
192,113,506,111,98,187,213,358,1
202,117,511,119,94,190,217,359,1
212,127,473,104,96,190,226,405,1
211,138,506,114,102,267,253,434,1
204,142,467,105,89,256,255,451,1
189,151,517,114,94,248,253,464,1
204,152,500,127,107,261,285,537,1
232,158,463,133,138,284,304,605,1
251,148,467,132,188,245,306,660,1
274,138,475,135,194,240,301,647,1
269,131,414,127,194,240,303,623,1
258,127,381,109,198,232,282,594,1
233,119,411,108,182,230,312,609,1
222,114,339,97,147,224,330,608,1
207,116,321,98,143,213,328,601,1
234,121,330,93,138,212,315,616,1
232,114,326,96,152,209,314,587,1
221,106,287,94,148,186,270,544,1
213,100,293,93,130,169,231,485,1
208,109,273,91,131,171,223,485,1
197,107,341,99,139,179,237,504,1
179,105,352,98,124,205,252,494,1
198,113,406,100,128,205,253,452,1
191,136,476,109,122,190,230,431,1
187,137,482,109,121,191,259,454,1
175,146,440,118,125,184,271,455,1
202,146,471,113,114,152,241,456,1
191,151,457,112,108,139,230,440,1
182,128,361,102,106,132,233,451,1
186,118,363,106,105,197,226,490,1
185,105,339,91,109,219,196,454,1
166,103,302,99,106,224,216,441,1
151,88,262,91,98,235,208,413,1
169,106,378,88,122,285,215,412,1
157,105,367,72,116,262,199,324,1
148,107,393,72,115,252,212,304,1
148,124,430,63,112,257,204,331,1
151,122,438,69,118,248,209,352,1
127,106,382,72,96,195,189,300,1
139,106,387,82,107,187,189,311,1
143,102,367,85,108,261,257,421,1
148,89,323,86,122,264,285,558,1
159,117,372,89,121,258,290,586,1
183,119,368,88,119,269,316,626,1
189,117,379,83,112,258,317,633,1
186,120,396,81,101,172,250,574,1
182,116,405,76,95,145,208,439,1
174,88,386,80,93,142,189,379,1
148,88,366,78,99,132,166,303,1
132,95,362,95,128,147,156,308,1
131,105,377,102,120,161,163,301,1
125,120,387,101,111,157,157,264,1
130,126,384,92,115,174,163,306,1
156,135,387,101,112,190,164,347,1
148,131,378,90,85,189,177,392,1
144,122,388,85,83,168,169,390,1
149,108,345,88,87,190,179,397,1
153,116,318,92,86,184,192,371,1
128,106,302,94,97,175,173,355,1
130,109,333,87,91,171,173,315,1
130,103,299,80,89,171,172,319,1
131,103,319,88,90,147,164,313,1
134,86,333,87,86,152,181,368,1
163,87,428,78,77,137,207,455,1
166,97,405,82,83,123,193,440,1
173,101,396,85,88,136,208,445,1
178,110,438,90,104,159,226,475,1
162,113,434,90,105,151,201,468,1
171,115,347,89,100,136,183,406,1
167,105,351,89,93,131,182,457,1
167,106,353,87,90,129,199,531,1
166,108,305,76,65,124,187,544,1
171,114,347,82,62,124,191,559,1
144,111,364,81,61,123,185,568,1
155,108,358,80,61,124,213,605,1
185,100,333,81,62,115,187,538,1
184,97,316,88,66,82,189,561,1
184,97,265,82,72,78,197,525,1
173,96,253,91,75,81,194,497,1
177,101,239,95,84,94,165,436,1
166,108,245,95,89,121,169,455,1
166,116,251,84,86,126,163,407,1
169,118,261,85,81,125,149,429,1
182,121,296,84,78,143,142,441,1
177,127,305,86,81,190,168,485,1
167,130,306,90,77,174,179,546,1
159,114,307,94,75,172,177,531,1
157,104,308,92,72,170,177,501,1
157,100,258,88,80,161,192,535,1
164,97,247,91,85,110,205,490,1
151,91,295,100,93,143,225,425,1
152,91,303,100,95,144,235,440,1
165,88,368,101,98,154,250,481,1
160,89,387,107,96,154,239,447,1
153,86,420,95,86,146,228,481,1
156,86,432,81,80,116,188,459,1
158,86,438,75,78,112,168,451,1
161,95,362,87,78,105,158,470,1
152,93,340,78,83,139,175,479,1
143,93,312,87,76,134,173,531,1
135,91,270,86,77,138,178,529,1
141,107,293,93,78,143,182,517,1
114,103,337,86,118,312,197,466,1
133,105,339,88,119,349,216,501,1
143,105,398,99,137,367,194,370,1
170,105,398,103,135,379,204,386,1
174,117,384,103,142,383,205,393,1
178,118,345,102,119,278,178,395,1
169,153,423,122,122,223,134,354,1
190,164,418,127,104,208,142,420,1
187,173,439,132,107,218,167,454,1
179,158,427,136,100,266,181,462,1
191,172,428,144,110,272,182,517,1
187,142,396,126,105,277,183,486,1
160,131,418,112,106,268,180,443,1
177,123,412,112,170,284,161,403,1
194,123,412,107,178,310,150,402,1
191,114,502,118,181,350,194,438,1
195,122,468,116,183,361,197,441,1
231,120,415,112,184,367,199,433,1
208,133,402,104,175,404,208,460,1
187,137,416,111,190,366,209,470,1
201,139,392,111,176,313,183,422,1
210,131,401,114,175,288,181,418,1
173,125,417,117,179,286,176,412,1
192,112,420,117,161,241,154,371,1
190,117,417,113,142,238,153,386,1
165,99,501,118,150,237,126,310,1
149,104,583,124,164,267,120,290,1
142,107,568,130,172,334,119,296,1
116,128,628,172,199,445,136,319,1
126,121,685,181,198,466,135,265,1
129,128,610,168,197,471,134,301,1
128,128,544,164,194,514,160,339,1
149,135,533,161,184,505,167,341,1
170,114,563,127,137,393,151,330,1
180,109,518,123,143,376,144,342,1
177,108,494,117,141,380,150,315,1
187,106,497,125,137,310,129,304,1
174,100,497,120,152,270,146,329,1
171,109,418,118,141,269,168,379,1
165,109,403,111,126,238,169,361,1
166,105,399,113,141,232,180,367,1
154,100,383,98,151,244,178,353,1
148,103,443,106,142,228,155,329,1
131,101,482,106,142,209,138,314,1
138,117,526,116,150,260,139,327,1
143,118,540,114,137,273,125,345,1
168,126,556,122,129,265,137,382,1
186,128,578,118,121,254,136,378,1
181,123,504,112,122,249,138,396,1
174,113,436,95,125,214,163,399,1
174,111,423,91,120,194,162,391,1
157,109,416,89,116,168,153,348,1
143,103,378,105,128,182,163,382,1
147,106,401,102,122,183,148,297,1
139,117,429,104,124,220,153,325,1
127,136,533,120,134,216,152,300,1
129,161,557,118,122,217,146,297,1
181,163,570,109,106,217,148,274,1
190,166,552,106,108,251,158,306,1
205,155,545,107,109,210,136,288,1
215,170,525,125,99,201,150,351,1
213,150,500,125,99,201,156,369,1
183,156,469,136,166,227,181,370,1
179,165,560,148,168,259,226,425,1
163,170,547,147,161,256,221,409,1
152,142,450,119,160,263,215,360,1
161,139,470,122,164,304,227,352,1
149,135,474,104,100,323,215,348,1
142,115,442,107,106,290,176,260,1
147,108,461,107,102,281,169,238,1
152,111,477,107,99,274,163,232,1
141,105,472,108,94,244,140,236,1
170,100,469,115,105,277,177,242,1
173,106,441,98,95,266,171,240,1
180,121,448,98,97,267,172,247,1
179,142,558,121,99,278,187,292,1
188,146,553,129,137,283,189,293,2
157,141,543,126,129,264,159,280,2
151,146,551,132,131,270,149,285,2
145,134,559,131,130,275,153,302,2
158,101,455,115,130,268,153,282,2
152,96,422,103,118,259,158,284,2
187,99,465,111,119,197,164,272,2
208,111,553,167,141,218,165,257,2
212,125,559,175,142,224,163,246,2
228,135,563,180,143,218,152,234,2
248,148,613,182,126,318,257,367,2
222,150,586,180,139,316,247,363,2
202,143,598,143,115,291,245,354,2
189,132,561,130,111,288,250,344,2
176,186,538,138,241,308,256,339,2
283,376,482,177,369,414,253,169,2
292,442,460,184,425,476,289,154,2
306,451,231,170,440,480,292,151,2
404,561,242,185,479,494,443,162,2
414,720,290,176,476,491,444,155,2
387,711,325,164,549,515,405,139,2
424,853,338,201,625,545,384,164,2
421,880,365,209,626,554,385,161,2
336,916,353,203,608,542,194,140,2
318,826,308,198,578,539,174,128,2
250,799,261,172,430,365,139,115,2
163,657,232,110,219,202,107,68,2
144,642,191,88,189,147,82,61,2
132,536,174,66,150,126,60,55,2
108,478,167,63,116,101,56,52,2
102,418,164,67,92,58,49,47,2
94,400,174,61,81,44,39,41,2
78,406,167,65,58,38,35,33,2
60,353,146,67,51,42,33,34,2
64,352,144,67,44,42,30,33,2
69,350,135,52,37,39,31,34,2
86,308,112,63,35,43,35,41,2
95,259,100,59,47,52,38,43,2
96,251,98,57,49,47,37,41,2
91,243,98,55,49,45,37,41,2
98,273,94,58,52,45,42,45,2
90,263,73,45,51,47,46,47,2
88,261,77,48,47,46,55,53,2
91,266,80,47,47,43,54,55,2
97,273,73,48,47,46,55,56,2
100,318,96,47,45,46,58,58,2
98,322,120,48,46,42,56,56,2
93,318,118,45,41,34,46,52,2
90,323,114,45,44,35,48,50,2
84,395,133,48,45,31,48,49,2
70,386,120,43,45,30,40,43,2
72,367,103,40,43,34,35,44,2
71,353,107,36,40,33,33,42,2
71,348,110,39,33,31,30,43,2
71,292,94,35,36,31,31,45,2
69,247,94,40,36,31,33,48,2
63,233,83,43,35,23,29,44,2
62,227,71,42,38,24,29,43,2
61,241,86,42,40,24,32,46,2
65,249,81,40,38,24,30,43,2
73,256,83,40,39,25,27,40,2
65,257,84,39,38,25,29,36,2
66,302,110,39,36,24,30,38,2
80,303,97,38,34,33,36,46,2
76,286,108,44,32,34,43,49,2
76,273,112,41,33,36,45,51,2
75,299,112,43,35,37,44,52,2
75,265,92,42,38,40,44,53,2
64,253,91,41,39,34,40,44,2
65,277,75,33,40,33,32,40,2
57,266,74,36,38,31,32,40,2
55,231,77,35,38,32,35,38,2
53,241,83,40,48,41,40,39,2
50,257,92,44,47,42,38,39,2
62,231,96,48,44,42,39,39,2
61,248,89,46,44,42,37,38,2
74,289,91,49,45,41,43,49,2
75,293,82,47,31,29,39,48,2
78,298,75,43,30,27,42,55,2
75,281,68,38,32,26,43,55,2
74,278,68,41,32,25,45,55,2
64,232,68,36,29,27,38,51,2
65,240,68,38,33,30,40,57,2
67,268,67,42,39,32,38,53,2
60,276,68,44,38,34,36,56,2
58,287,67,42,37,35,33,53,2
55,292,94,46,40,33,32,51,2
61,280,101,44,42,32,27,50,2
67,262,106,38,37,33,32,48,2
66,253,108,40,40,32,34,49,2
69,239,105,40,43,31,35,51,2
73,244,84,34,44,32,38,51,2
67,235,76,33,39,31,40,43,2
53,191,74,36,38,28,35,43,2
53,200,76,36,37,26,33,38,2
61,194,84,36,35,25,39,43,2
61,225,109,37,31,25,38,40,2
60,232,108,38,32,24,38,41,2
61,237,103,36,38,25,38,39,2
68,242,104,32,37,25,39,40,2
54,237,101,34,36,27,31,34,2
50,203,79,32,35,26,30,38,2
58,189,79,33,39,30,31,48,2
60,206,88,34,34,31,34,48,2
50,178,90,35,36,36,33,48,2
53,250,94,35,36,37,36,46,2
65,291,88,36,38,43,37,43,2
56,302,88,33,32,42,33,34,2
51,298,78,32,30,41,31,32,2
54,318,76,33,37,40,29,30,2
51,292,73,32,38,37,26,33,2
48,268,80,44,41,29,27,39,2
49,265,79,47,41,28,30,37,2
70,258,79,56,42,27,34,47,2
74,236,77,53,35,25,39,47,2
75,266,74,55,35,26,40,49,2
69,262,61,46,27,26,40,47,2
70,255,63,44,29,27,43,47,2
57,359,83,34,28,36,42,42,2
55,384,88,35,27,35,38,41,2
53,356,102,35,27,35,36,38,2
57,397,105,36,29,37,38,40,2
55,414,103,37,30,36,36,40,2
52,345,96,36,33,26,33,38,2
55,334,111,37,32,27,34,42,2
57,329,99,36,33,26,34,41,2
51,269,97,37,37,25,32,36,2
57,240,110,36,37,25,27,36,2
53,283,106,34,34,26,29,35,2
43,259,82,35,35,26,29,35,2
42,273,81,35,37,33,32,38,2
46,294,89,30,35,37,44,41,2
45,305,78,35,39,38,48,39,2
52,242,77,35,41,38,49,40,2
56,255,103,37,40,36,50,36,2
56,247,105,36,38,31,50,34,2
56,214,101,38,35,28,40,31,2
51,218,103,33,28,28,34,33,2
46,244,101,34,31,26,32,33,2
48,256,76,34,31,27,30,36,2
55,243,73,36,32,27,26,40,2
57,247,80,37,33,24,34,41,2
58,247,80,40,35,37,43,43,2
59,226,79,38,30,37,43,40,2
57,201,87,38,31,37,44,39,2
50,237,90,37,30,40,46,35,2
49,237,78,34,29,40,40,34,2
53,242,82,31,28,30,30,32,2
65,233,81,32,31,36,34,33,2
65,233,77,29,31,44,42,34,2
66,205,78,30,32,41,42,37,2
63,209,81,29,31,42,42,37,2
58,198,80,32,31,41,41,35,2
49,214,79,33,29,37,40,33,2
45,221,73,33,28,25,28,31,2
44,211,87,33,30,27,26,28,2
49,208,87,36,30,27,28,34,2
51,205,81,35,34,37,30,37,2
41,175,80,34,33,37,30,39,2
41,163,85,36,35,40,31,39,2
40,165,68,35,34,39,31,40,2
43,203,84,35,33,38,34,41,2
41,262,86,35,29,29,31,38,2
42,268,89,42,31,27,28,37,2
44,268,82,41,30,35,36,36,2
44,269,82,43,32,34,35,36,2
39,277,68,46,37,35,43,38,2
41,205,64,45,35,34,43,39,2
43,214,64,39,35,35,44,43,2
45,211,66,40,38,27,37,43,2
52,232,80,40,37,27,37,42,2
57,210,86,39,34,28,28,43,2
57,214,88,40,36,28,28,42,2
58,210,85,41,36,27,29,39,2
58,226,86,40,32,27,32,39,2
52,202,75,38,29,25,33,40,2
53,185,60,31,28,24,29,35,2
51,192,58,30,29,23,30,35,2
49,237,60,28,30,23,29,34,2
45,235,61,28,29,23,26,35,2
50,256,75,27,31,23,28,35,2
43,250,74,29,31,21,29,29,2
45,248,74,30,31,24,29,30,2
48,201,75,27,29,35,30,31,2
50,230,102,29,30,40,33,31,2
45,211,91,29,31,41,30,31,2
44,230,91,32,30,42,29,33,2
43,220,92,32,30,42,30,32,2
43,265,101,44,35,33,32,38,2
43,230,73,42,34,26,29,35,2
49,244,78,44,32,26,35,43,2
47,229,79,42,32,37,37,43,2
48,230,77,43,31,39,35,46,2
43,171,61,33,26,40,32,43,2
41,191,64,35,29,40,35,45,2
32,180,58,39,29,43,31,36,2
35,181,56,46,33,40,31,41,2
36,180,63,48,31,37,32,35,2
36,176,67,59,33,37,36,33,2
36,163,68,68,30,37,36,36,2
36,212,105,71,33,33,39,37,2
34,227,105,69,29,26,38,30,2
31,233,107,68,32,29,38,36,2
32,239,109,60,32,28,35,36,2
34,234,131,54,31,27,35,33,2
46,177,102,49,34,53,47,41,2
49,141,104,47,34,55,47,40,2
50,130,159,76,34,56,56,41,2
52,131,169,80,33,58,59,43,2
56,119,153,78,33,59,59,42,2
48,98,155,78,30,41,46,37,2
45,95,157,78,31,39,47,38,2
48,97,106,48,31,54,39,40,2
46,102,87,43,32,58,42,39,2
42,106,87,44,33,59,40,40,2
39,113,97,42,34,55,41,40,2
39,122,108,48,34,56,41,44,2
37,120,100,49,32,39,37,38,2
35,102,98,48,30,30,28,40,2
32,99,106,50,30,32,37,40,2
31,92,93,59,30,42,50,47,2
30,87,78,54,30,48,52,48,2
28,110,82,55,30,47,53,51,2
29,110,92,65,32,47,54,53,2
29,109,77,62,31,45,50,52,2
30,108,81,50,27,35,38,48,2
36,142,85,55,28,27,35,45,2
34,158,103,65,30,27,36,43,2
34,160,108,56,27,27,33,39,2
34,159,124,59,29,25,33,40,2
41,180,128,67,30,26,32,40,2
37,158,123,63,28,25,30,37,2
37,138,111,51,25,27,29,38,2
38,135,100,50,28,25,30,37,2
38,138,80,46,28,26,31,35,2
32,159,78,35,29,26,30,33,2
31,149,80,38,31,30,30,32,2
32,140,75,39,32,28,28,31,2
31,145,68,38,31,28,25,32,2
31,147,64,37,31,27,23,33,2
38,124,60,40,29,27,23,34,2
41,149,64,40,28,25,24,34,2
39,147,65,39,29,28,25,34,2
41,146,66,40,29,29,25,31,2
44,185,77,41,29,29,26,30,2
40,176,80,39,27,30,25,27,2
40,161,78,38,29,29,23,30,2
40,158,75,40,28,27,22,31,2
41,163,94,40,29,29,26,31,2
37,125,88,37,27,29,25,34,2
34,164,81,39,27,28,27,35,2
33,162,82,36,24,29,27,32,2
33,177,81,32,27,26,28,33,2
27,175,68,31,25,25,25,33,2
28,168,65,30,27,24,25,30,2
32,136,62,29,29,25,25,30,2
34,138,55,29,31,23,25,34,2
38,147,61,27,29,24,25,32,2
40,141,47,28,31,23,24,32,2
43,146,46,31,32,24,23,32,2
39,131,69,32,32,22,24,31,2
39,173,78,32,32,24,23,27,2
36,158,73,35,34,24,23,28,2
35,158,73,33,33,23,23,29,2
30,151,76,33,31,21,26,28,2
29,212,60,36,29,23,27,31,2
29,180,48,37,29,21,27,31,2
30,173,57,37,26,25,29,31,2
30,174,61,40,27,27,29,32,2
34,178,58,37,26,28,30,31,2
34,95,53,34,25,27,28,27,2
38,161,72,39,25,31,29,29,2
39,166,67,38,27,27,28,29,2
39,180,72,38,28,27,27,30,2
37,178,73,38,27,29,25,30,2
36,175,74,39,28,28,28,31,2
30,124,62,35,29,25,26,28,2
30,130,67,33,25,23,24,29,2
29,120,63,30,23,25,24,27,2
31,131,63,33,27,21,24,27,2
34,131,61,30,27,21,26,26,2
35,129,61,28,24,19,29,31,2
36,119,52,30,26,25,30,31,2
33,106,45,30,26,23,29,31,2
32,125,45,31,25,24,31,33,2
29,146,45,34,25,25,29,36,2
30,151,66,34,27,27,28,33,2
29,177,72,37,27,23,26,32,2
30,181,75,36,27,24,27,33,2
32,163,76,36,25,24,24,32,2
35,150,78,35,27,23,26,29,2
38,142,66,36,24,23,24,28,2
35,104,58,32,24,23,26,29,2
36,161,75,36,28,25,30,29,2
35,159,72,33,28,24,30,29,2
33,160,73,34,27,24,28,31,2
29,159,66,33,26,25,30,32,2
34,176,67,36,32,26,29,33,2
33,126,46,32,27,23,28,31,2
31,121,46,33,29,25,27,34,2
33,129,49,34,29,24,30,35,2
33,122,56,36,30,22,25,33,3
32,122,70,37,27,23,26,31,3
32,117,69,38,28,22,24,31,3
34,122,70,38,28,22,27,27,3
31,104,64,35,29,23,23,26,3
35,121,84,38,31,26,25,29,3
31,101,77,35,30,25,24,30,3
31,114,78,34,29,29,26,31,3
43,179,81,35,27,29,25,38,3
43,195,89,35,26,30,25,38,3
40,186,65,27,26,27,26,39,3
40,194,58,28,23,29,26,38,3
42,187,57,31,24,26,24,37,3
28,124,56,30,24,25,23,32,3
32,107,43,31,25,25,26,32,3
33,135,44,31,23,25,25,29,3
33,127,44,31,26,23,23,27,3
34,135,58,30,25,22,23,30,3
33,132,56,29,26,21,24,31,3
36,128,56,29,25,19,24,28,3
35,98,55,31,28,22,25,32,3
36,90,58,29,26,22,25,33,3
35,77,45,26,27,21,25,32,3
34,76,41,27,30,22,26,29,3
30,76,40,25,30,22,25,32,3
58,163,77,28,30,42,39,32,3
96,358,80,33,31,62,54,35,3
182,445,105,47,52,121,127,51,3
211,516,128,66,72,171,179,71,3
464,733,159,91,97,190,207,141,3
549,764,273,113,183,327,361,198,3
577,826,337,125,214,360,475,228,3
616,882,361,142,222,364,500,296,3
692,975,482,155,225,399,572,322,3
633,890,497,151,224,425,583,324,3
637,896,452,147,186,349,537,301,3
708,817,427,145,170,320,461,299,3
693,820,429,131,182,355,526,238,3
662,811,379,120,194,312,512,225,3
608,843,365,116,193,273,521,198,3
561,914,379,112,217,321,520,197,3
463,958,437,120,242,397,537,182,3
446,945,455,117,242,383,450,180,3
386,885,401,113,240,402,417,151,3
403,821,434,115,252,426,403,154,3
393,743,423,108,250,427,382,144,3
361,686,396,92,231,391,338,144,3
373,629,370,99,215,386,347,143,3
379,644,410,96,223,396,301,137,3
364,704,446,90,207,400,316,130,3
426,849,466,92,195,389,365,142,3
444,858,457,92,223,403,399,131,3
410,862,468,82,221,393,393,134,3
438,909,483,77,273,409,385,144,3
458,880,420,71,320,427,368,138,3
477,767,433,70,314,396,299,155,3
478,771,424,68,336,478,270,156,3
481,753,393,67,347,510,340,154,3
444,638,341,72,292,486,354,148,3
464,640,391,80,240,445,346,149,3
410,616,359,78,229,450,393,130,3
400,679,353,77,145,352,463,123,3
397,754,362,82,136,331,414,117,3
430,814,379,75,141,312,390,119,3
387,875,343,75,142,318,387,122,3
333,929,365,71,170,335,341,110,3
326,856,367,79,206,312,308,112,3
356,867,365,87,203,295,334,128,3
326,841,314,92,222,308,347,132,3
311,789,303,90,219,295,344,138,3
311,759,270,95,241,343,345,138,3
343,785,257,92,248,383,285,142,3
330,792,284,79,246,384,262,134,3
313,786,310,75,228,374,248,129,3
301,770,290,66,243,399,269,114,3
312,802,269,64,199,356,282,115,3
305,795,241,61,154,296,263,125,3
284,773,252,65,146,268,229,143,3
287,848,238,77,165,284,235,163,3
293,884,238,80,144,257,233,175,3
320,846,236,78,149,248,214,178,3
300,856,239,81,142,258,226,190,3
300,808,188,81,141,276,273,204,3
293,740,183,66,111,244,270,199,3
279,694,191,62,104,246,294,196,3
233,734,210,63,85,212,289,201,3
217,771,220,56,77,188,288,180,3
206,744,213,60,101,195,259,145,3
206,780,224,63,115,241,276,136,3
234,796,212,63,116,233,236,136,3
276,752,209,56,118,242,309,131,3
265,677,196,56,117,249,309,126,3
254,823,200,47,121,241,299,135,3
322,791,160,44,108,204,284,135,3
312,768,169,41,110,220,332,133,3
259,699,152,43,139,233,291,129,3
276,747,167,49,152,232,300,131,3
303,655,162,57,171,228,299,130,3
235,626,163,55,252,256,297,120,3
239,686,137,55,257,267,292,111,3
273,682,131,54,249,276,280,103,3
282,717,140,49,268,322,270,100,3
292,668,163,38,256,310,278,91,3
319,728,258,49,180,295,278,129,3
311,647,276,54,176,268,208,153,3
375,670,280,55,206,291,250,160,3
369,687,325,58,191,278,287,162,3
352,720,321,59,178,285,279,161,3
340,674,261,52,185,287,325,141,3
346,732,265,58,200,309,349,136,3
283,761,278,74,158,280,319,154,3
297,794,233,74,134,260,284,156,3
306,762,232,74,156,287,280,157,3
323,755,247,76,148,275,223,163,3
322,730,240,72,143,291,196,149,3
290,690,263,55,152,300,200,128,3
268,581,355,63,197,299,190,125,3
268,577,436,89,187,284,213,120,3
244,633,426,86,185,279,205,103,3
236,592,441,88,228,363,209,102,3
237,673,455,90,226,348,194,105,3
258,789,388,89,186,328,196,105,3
271,807,338,65,177,344,174,114,3
258,738,354,64,186,365,185,115,3
266,770,330,58,132,284,179,127,3
266,720,326,62,123,297,170,122,3
269,602,319,57,122,294,163,130,3
235,615,294,59,122,259,162,123,3
240,637,276,63,111,226,170,145,3
246,607,289,71,87,200,158,146,3
247,689,262,65,86,169,164,144,3
259,730,318,71,86,177,163,139,3
250,725,305,72,105,214,173,139,3
249,779,322,71,118,250,163,110,3
260,823,329,73,195,242,186,96,3
262,799,321,79,213,246,178,91,3
235,775,311,71,214,244,177,91,3
260,791,336,68,208,224,155,101,3
276,728,322,77,220,206,173,109,3
254,716,312,69,201,205,158,111,3
258,704,363,65,190,211,158,117,3
252,642,351,70,201,221,181,111,3
246,603,316,67,200,219,205,105,3
248,585,346,57,177,200,183,98,3
246,595,355,57,136,196,168,93,3
250,590,361,61,136,195,168,99,3
236,634,333,51,117,179,143,101,3
253,683,332,55,121,232,147,101,3
248,717,352,55,119,267,163,109,3
265,734,343,67,120,284,164,109,3
258,701,302,63,116,289,158,101,3
279,732,309,68,122,296,159,102,3
255,725,314,68,118,249,147,100,3
234,744,282,70,120,240,150,102,3
216,725,277,59,99,208,161,95,3
302,752,250,66,91,204,187,108,3
309,729,252,65,106,204,192,110,3
301,677,247,64,99,199,191,107,3
312,690,250,62,86,155,190,110,3
342,704,266,61,97,167,180,110,3
276,648,311,55,97,156,158,96,3
246,602,334,69,84,148,156,102,3
315,623,344,72,100,212,178,109,3
309,574,332,68,100,229,166,95,3
273,487,326,70,92,218,163,94,3
274,488,283,68,94,226,166,102,3
285,492,241,55,99,247,164,91,3
222,485,274,52,103,213,125,82,3
234,476,306,60,137,233,123,80,3
253,553,330,61,139,247,125,87,3
240,614,332,59,141,258,188,80,3
240,622,337,56,143,247,209,99,3
263,664,330,63,130,237,234,108,3
255,695,296,58,103,220,234,116,3
248,708,267,54,104,220,238,114,3
279,692,265,61,137,215,206,117,3
290,751,301,62,143,227,182,105,3
265,730,290,55,147,240,160,99,3
275,723,307,51,144,225,171,106,3
284,744,329,59,176,244,175,105,3
257,788,327,61,155,246,172,103,3
242,845,323,63,140,234,183,103,3
234,835,357,64,157,234,214,97,3
221,836,386,72,156,241,203,87,3
198,786,361,67,115,214,230,82,3
219,746,395,63,118,210,220,78,3
225,651,392,66,123,228,236,72,3
230,722,360,71,102,216,205,76,3
230,673,317,67,97,206,200,78,3
267,675,350,71,104,198,161,89,3
270,710,322,68,147,202,177,95,3
277,683,320,64,154,191,146,99,3
287,632,360,58,155,201,144,103,3
298,713,389,59,161,200,154,97,3
267,759,377,54,157,196,146,86,3
273,731,374,58,109,179,147,83,3
273,732,389,60,107,181,180,77,3
262,732,339,59,106,170,179,68,3
268,763,319,62,118,209,190,75,3
260,735,350,69,118,210,190,79,3
244,728,341,66,113,202,197,79,3
233,768,359,66,117,198,200,85,3
260,750,357,64,151,269,212,97,3
244,704,342,60,147,253,219,92,3
261,726,313,57,155,254,225,96,3
275,728,344,57,157,255,206,97,3
279,661,307,56,142,244,179,100,3
254,650,313,56,107,181,174,94,3
248,597,378,60,92,171,155,101,3
251,506,379,60,77,170,153,101,3
220,459,376,63,76,167,149,94,3
203,532,374,63,95,191,155,89,3
203,536,372,68,87,176,144,112,3
231,564,312,66,116,192,136,116,3
208,556,285,64,115,198,128,112,3
262,692,323,79,132,211,144,116,3
266,672,330,80,124,190,133,116,3
290,686,324,76,124,198,127,91,3
299,732,328,79,99,194,133,88,3
308,732,321,75,101,193,140,87,3
270,617,293,56,82,186,129,83,3
303,601,257,56,102,265,136,87,3
314,565,281,58,108,254,163,87,3
280,451,288,49,108,276,163,76,3
279,489,302,55,109,282,161,79,3
285,524,285,56,105,273,159,87,3
241,528,292,55,83,196,155,80,3
184,558,298,54,83,193,135,86,3
186,614,303,57,83,168,169,83,3
177,682,370,59,80,168,195,83,3
168,730,379,58,82,187,209,83,3
168,762,408,59,80,193,205,85,3
174,738,414,56,82,214,213,88,3
201,699,416,52,85,215,194,89,3
204,655,373,46,83,205,170,92,3
239,659,347,48,90,196,151,84,3
233,599,324,46,98,228,157,86,3
239,635,320,50,89,219,151,76,3
243,655,290,52,82,215,135,76,3
257,610,298,57,81,217,138,74,3
228,545,315,53,83,218,141,73,3
256,553,309,51,95,205,150,71,3
245,541,297,49,94,197,152,69,3
222,535,301,48,95,187,160,70,3
248,634,327,54,106,203,174,86,3
264,664,329,55,98,212,169,96,3
254,665,340,56,91,193,179,95,3
269,633,359,67,97,215,202,94,3
286,637,364,63,101,221,206,92,3
258,629,315,55,91,204,188,72,3
241,637,284,53,91,210,203,61,3
245,632,334,59,102,238,219,64,3
236,644,334,58,104,228,201,70,3
231,786,344,67,98,212,196,77,3
245,767,339,70,98,218,210,96,3
260,720,362,73,101,207,215,98,3
269,769,293,68,81,173,189,103,3
287,793,293,61,71,166,178,102,3
276,668,275,55,90,186,167,113,3
252,637,284,51,95,185,173,97,3
252,701,318,58,104,213,161,113,3
229,628,356,59,106,225,152,107,3
210,595,322,61,113,218,158,109,3
229,640,328,61,99,212,178,106,3
261,687,327,63,100,220,168,114,3
269,645,274,58,117,217,168,112,3
273,647,249,57,115,213,165,112,3
266,651,252,52,116,256,210,111,3
320,574,268,51,120,254,200,104,3
300,580,272,50,123,269,215,104,3
285,581,266,42,104,249,217,96,3
290,600,269,53,109,244,233,101,3
308,581,277,61,106,226,194,105,3
236,645,248,60,107,257,193,103,3
275,633,275,63,96,234,172,108,3
274,587,287,63,85,232,162,102,3
314,666,303,56,96,281,160,109,3
323,697,317,53,93,263,187,124,3
321,655,318,57,119,234,191,123,3
287,618,307,54,133,236,186,113,3
329,658,309,70,137,235,183,118,3
303,693,321,72,121,188,182,109,3
280,686,303,70,124,204,202,84,3
298,651,314,68,109,219,205,100,3
321,720,339,72,93,236,216,104,3
267,732,347,80,105,252,222,103,3
242,644,306,77,107,239,217,100,3
243,643,296,75,134,282,185,106,3
240,688,295,75,124,275,170,90,3
230,597,235,74,129,252,158,84,2
222,634,212,60,116,239,168,78,2
233,654,228,66,123,258,197,92,2
247,639,282,71,97,203,184,84,2
236,792,301,75,101,229,191,85,2
220,830,312,75,95,239,196,84,2
250,812,324,69,100,230,186,87,2
327,822,334,69,89,240,145,79,2
318,828,312,64,75,239,158,76,2
309,658,283,59,62,213,157,75,2
301,622,289,61,91,216,149,75,2
293,556,310,60,88,228,145,76,2
220,514,292,55,88,196,139,79,2
230,569,285,60,101,216,124,88,2
233,601,325,59,112,233,116,94,2
276,595,319,63,89,217,118,110,2
295,691,347,78,88,215,125,118,2
287,697,337,76,89,216,130,113,2
304,766,345,79,79,180,140,113,2
324,761,300,78,64,136,140,109,2
299,817,315,71,62,138,138,101,2
263,804,243,55,54,147,142,84,2
260,874,242,59,53,137,144,86,2
227,809,212,55,46,131,125,78,2
185,769,204,54,42,130,123,74,2
169,717,198,52,41,127,118,66,2
174,651,188,61,40,90,92,66,2
178,502,183,64,34,64,73,59,2
163,431,179,105,39,47,64,56,2
172,453,192,112,42,44,57,54,2
175,372,149,112,40,39,49,49,2
165,336,153,108,41,34,44,45,2
139,336,158,126,44,33,38,42,2
142,300,163,111,40,33,34,44,2
122,232,153,116,37,30,35,46,2
101,264,159,120,37,31,34,45,2
106,304,157,120,38,32,35,44,2
110,289,139,98,34,29,35,47,2
136,293,179,156,38,31,33,51,2
154,291,191,156,39,34,33,52,2
155,269,182,156,38,32,31,51,2
148,210,178,156,38,33,28,51,2
139,196,176,158,39,33,28,47,2
102,191,120,84,30,30,29,39,2
109,193,100,68,29,25,26,39,2
109,169,139,70,31,25,30,37,2
113,132,137,75,30,21,29,38,2
111,125,154,72,29,24,30,43,2
110,121,159,67,29,24,28,43,2
90,144,155,68,29,26,30,43,2
97,141,127,58,28,27,27,43,2
92,133,137,55,27,26,26,41,2
91,133,117,55,27,26,26,37,2
102,132,111,54,28,24,29,35,2
86,203,114,51,29,25,27,30,2
78,220,109,49,28,24,28,30,2
82,224,93,44,29,25,28,31,2
85,228,91,40,29,22,26,32,2
78,235,99,54,28,22,24,36,2
82,164,90,57,28,22,23,36,2
94,177,79,54,29,24,23,37,2
90,185,90,57,30,23,22,35,2
88,274,101,57,29,27,25,36,2
81,283,90,43,27,27,25,33,2
73,278,92,40,25,27,25,35,2
41,258,96,45,24,26,25,33,2
38,249,83,41,24,26,27,34,2
39,181,98,48,22,22,27,36,2
57,167,107,47,23,23,26,35,2
60,162,105,47,27,23,25,33,2
63,170,108,47,26,24,26,31,2
63,172,119,49,30,25,25,31,2
60,152,102,51,28,25,26,27,2
51,144,98,60,33,26,28,35,2
47,138,94,60,30,24,28,35,2
44,141,88,58,30,25,28,36,2
45,146,80,53,26,26,27,35,2
47,170,89,56,28,28,27,37,2
41,178,85,51,24,26,26,30,2
47,192,93,52,26,28,25,30,2
54,241,101,50,28,29,24,34,2
52,261,100,50,27,26,26,34,2
49,235,87,37,27,24,23,37,2
46,228,83,32,27,23,26,37,2
41,252,74,29,25,24,26,34,2
32,215,65,29,25,22,28,32,2
47,198,65,36,25,25,28,35,2
48,203,71,41,25,24,31,32,2
50,203,72,44,25,27,27,31,2
50,158,67,45,24,25,29,33,2
49,162,72,49,25,24,27,32,2
36,203,68,46,25,25,25,29,2
36,221,64,42,26,26,22,25,2
37,248,68,38,25,24,26,29,2
37,268,84,41,27,23,24,26,2
45,255,80,38,27,27,27,30,2
44,225,74,35,26,25,28,32,2
46,216,79,36,27,25,29,32,2
51,188,81,39,30,26,26,31,2
56,212,73,39,28,28,28,33,2
48,235,71,38,28,24,26,28,2
54,244,70,40,29,23,27,28,2
53,232,63,42,31,23,26,28,2
47,234,62,40,29,24,25,29,2
44,187,54,39,28,23,27,31,2
44,143,53,42,30,24,25,32,2
43,205,58,45,32,25,26,33,2
40,213,55,42,29,24,27,31,2
40,210,48,41,30,25,27,30,2
35,298,78,43,30,26,25,29,2
36,302,77,40,27,25,26,29,2
30,249,77,35,25,24,25,29,2
33,292,81,36,28,23,28,31,2
37,327,84,37,28,23,29,33,2
42,270,61,30,26,23,29,34,2
41,278,63,33,30,24,29,33,2
41,275,58,34,30,25,26,32,2
39,233,55,32,27,26,23,30,2
38,199,59,34,27,25,22,29,2
35,171,51,33,28,25,20,32,2
35,165,74,32,25,25,21,32,2
41,195,96,33,25,25,21,31,2
46,195,99,32,25,26,23,34,2
42,186,96,31,28,26,24,33,2
41,195,96,31,26,27,26,28,2
40,190,80,31,29,27,26,29,2
38,210,85,31,30,28,26,29,2
38,237,88,33,29,27,28,27,2
41,247,91,39,28,26,29,29,2
43,243,91,44,32,26,30,33,2
42,241,91,43,30,25,30,34,2
46,200,61,42,29,23,30,33,2
42,175,61,43,31,24,27,31,2
51,176,88,42,31,26,29,35,2
50,173,90,37,26,25,25,30,2
50,177,90,37,26,25,27,31,2
44,172,89,34,27,25,27,32,2
46,232,102,35,30,27,28,33,2
34,223,77,26,29,24,26,27,2
35,229,72,28,30,25,26,29,2
36,225,74,32,31,22,24,29,2
39,228,79,34,29,23,26,29,2
42,181,56,35,27,22,25,32,2
44,166,54,37,28,25,24,32,2
45,160,56,37,29,25,25,30,2
43,157,57,34,28,25,24,30,2
47,176,51,34,29,24,22,31,2
46,184,52,32,28,24,24,31,2
44,187,54,32,27,22,25,31,2
43,182,52,32,25,23,25,32,2
46,191,66,34,27,24,26,34,2
38,210,70,35,29,25,27,33,2
33,183,81,38,31,24,25,30,2
30,180,83,38,31,24,25,31,2
30,181,83,37,32,24,24,34,2
28,170,70,34,29,23,23,32,2
29,128,68,35,26,24,23,33,2
32,148,49,27,24,22,23,35,2
35,152,44,30,24,21,23,35,2
35,150,43,29,21,23,23,32,2
33,151,42,30,24,21,21,32,2
34,152,50,35,24,21,26,29,2
32,120,47,36,25,22,25,27,2
29,106,50,34,24,24,25,27,2
31,110,50,36,26,21,27,27,2
35,116,62,35,23,23,28,26,2
35,126,59,29,27,24,24,26,2
40,203,84,32,26,23,27,25,2
42,205,93,32,27,24,28,25,2
42,206,93,31,27,25,26,26,2
40,206,86,33,28,24,27,26,2
39,210,82,33,27,22,27,31,2
44,179,67,33,28,24,27,31,2
42,178,58,33,27,22,26,31,2
42,184,63,38,26,22,27,33,2
40,186,67,37,26,21,26,31,2
46,211,68,39,27,22,28,29,2
35,190,57,36,27,23,25,29,2
39,203,69,36,28,26,24,32,2
41,193,65,30,29,26,26,30,2
41,191,60,30,29,26,27,32,2
34,150,61,29,26,26,25,29,2
47,217,79,34,26,24,28,39,2
47,237,69,34,24,23,29,38,2
46,245,71,38,24,23,28,38,2
46,245,71,37,26,22,27,39,2
47,241,72,37,27,24,27,41,2
38,190,60,34,26,29,26,32,2
38,198,65,33,27,28,25,30,2
35,194,64,30,26,29,25,29,2
37,196,63,30,25,29,25,29,2
38,195,69,37,25,28,26,29,2
34,172,66,36,24,22,24,30,2
32,149,62,34,25,23,25,30,2
44,182,63,36,27,25,25,33,2
43,181,62,36,26,26,24,31,2
42,176,61,33,26,28,24,28,2
41,176,58,33,26,28,28,27,2
42,150,59,36,26,28,28,30,2
29,96,58,32,26,25,27,26,2
29,93,61,33,28,27,28,27,2
29,118,71,30,28,24,27,27,2
36,126,71,36,29,24,26,30,2
36,164,70,36,27,23,25,28,2
38,166,71,37,26,25,25,32,2
38,165,82,40,25,26,24,32,2
37,146,66,41,27,25,24,32,2
32,142,76,36,26,26,23,29,2
34,92,73,37,28,28,23,33,2
33,96,77,38,29,26,21,28,2
36,165,64,33,29,26,24,29,2
37,186,67,32,27,27,25,28,2
38,201,75,34,28,26,24,31,2
36,207,74,32,28,26,25,28,2
37,215,71,29,28,27,25,29,2
34,165,72,31,29,23,23,29,2
38,163,70,33,29,24,21,29,2
37,196,63,31,28,27,23,27,2
37,197,66,31,27,26,22,29,2
36,187,67,31,28,30,24,30,2
36,195,70,31,26,31,23,30,2
28,180,79,32,24,31,25,31,2
30,127,69,29,25,29,23,33,2
32,120,73,33,24,29,23,33,2
37,204,82,36,23,26,24,31,2
37,201,80,38,25,25,25,31,2
40,205,70,35,29,23,24,33,2
38,202,72,36,30,25,26,30,2
35,199,64,32,30,24,26,29,2
32,128,69,36,30,25,25,31,2
32,119,67,33,29,24,24,31,2
34,164,73,36,26,25,24,29,2
32,165,72,38,25,23,22,32,2
31,181,79,39,26,24,23,33,2
29,180,72,33,25,22,24,32,2
32,188,72,34,25,25,24,31,2
29,140,67,30,25,25,25,30,2
31,133,64,27,27,26,26,28,2
33,140,74,31,28,25,25,28,2
38,164,64,33,29,27,27,29,2
37,168,65,34,30,26,30,31,2
36,174,64,36,31,25,29,32,2
36,179,64,39,30,26,30,33,2
38,165,59,34,29,26,30,33,2
32,131,62,31,29,26,29,33,2
35,127,74,32,27,26,25,31,2
38,119,77,34,26,26,26,29,2
41,111,78,31,25,26,24,28,2
39,172,69,34,27,27,24,29,2
41,176,69,35,28,26,23,28,2
38,177,63,36,29,27,24,34,2
38,182,61,33,31,27,25,35,2
34,185,60,33,29,26,24,34,2
36,135,69,30,26,25,23,32,2
33,120,64,36,28,23,23,35,2
32,110,59,33,26,21,25,29,2
30,100,59,32,25,21,23,30,2
29,97,60,35,28,21,24,30,2
23,71,48,35,28,19,28,28,2
26,118,50,31,26,24,28,28,2
31,120,48,31,26,25,27,30,2
31,126,48,31,26,24,28,28,2
33,133,60,29,23,23,28,29,2
35,134,59,29,24,25,24,30,2
36,110,62,30,25,22,24,28,2
32,104,61,29,27,21,23,26,2
39,92,61,30,28,20,22,28,2
39,86,61,33,28,21,24,27,2
40,86,60,33,28,20,24,27,2
38,116,66,30,27,20,24,28,2
39,130,66,29,25,20,25,29,2
32,133,67,27,23,24,26,27,2
32,140,62,23,26,24,24,27,2
29,144,65,27,23,26,26,27,2
35,116,55,30,25,26,25,26,2
36,103,56,34,25,28,25,27,2
35,100,52,37,25,26,25,28,2
35,84,76,41,24,26,25,30,2
35,77,74,41,25,24,24,30,2
27,80,75,39,25,23,25,30,2
25,77,75,37,25,21,23,29,2
31,101,76,37,28,19,22,31,2
31,101,42,34,29,19,24,27,2
33,130,63,37,29,19,22,27,2
35,131,66,36,27,22,22,28,2
34,130,66,35,28,22,24,27,2
29,122,68,33,25,24,24,27,2
30,124,72,35,27,25,22,28,2
31,110,75,31,27,24,23,28,1
31,107,74,31,29,22,28,29,1
34,116,75,31,31,21,26,30,1
35,107,76,31,32,21,26,30,1
33,113,80,31,32,22,26,34,1
33,125,71,33,32,22,27,35,1
32,121,72,37,30,22,23,33,1
38,113,71,39,28,22,24,31,1
37,115,72,41,28,21,25,31,1
39,116,75,41,26,20,26,29,1
38,102,66,40,24,21,24,26,1
40,111,62,38,25,20,25,30,1
35,161,78,36,26,20,23,32,1
35,165,75,34,27,19,27,30,1
36,164,62,30,24,23,24,29,1
36,163,68,28,25,23,24,31,1
39,176,69,27,25,26,25,29,1
34,129,49,28,25,25,28,28,1
36,123,49,28,25,26,25,30,1
33,123,58,30,27,24,27,32,1
32,130,62,28,26,24,28,29,1
30,135,68,27,24,21,26,31,1
37,147,92,30,24,22,25,30,1
36,152,95,33,23,22,23,27,1
36,161,97,34,24,22,26,28,1
36,147,95,35,27,23,26,28,1
33,122,93,36,27,23,26,28,1
32,114,73,35,27,23,24,31,1
35,127,85,35,30,23,28,33,1
35,140,84,36,27,22,25,31,1
37,141,133,76,29,24,37,31,1
38,141,139,80,30,25,41,31,1
34,149,145,78,29,28,42,28,1
37,144,139,80,29,29,42,34,1
45,151,140,80,33,39,56,60,1
62,156,107,62,43,48,115,113,1
72,157,115,62,76,66,169,175,1
125,173,135,92,134,113,234,256,1
162,256,225,123,152,230,310,465,1
182,307,300,142,167,289,332,515,1
204,395,326,144,177,375,375,608,1
220,426,380,181,188,557,491,671,1
256,437,426,195,173,631,525,699,1
259,397,466,195,173,655,537,701,1
286,354,587,202,198,665,529,706,1
326,265,663,221,208,703,552,768,1
357,231,706,235,214,577,467,778,1
348,199,749,253,210,518,463,825,1
359,203,749,255,212,455,451,799,1
372,203,674,252,184,465,463,831,1
348,180,681,240,166,346,402,798,1
325,181,659,211,180,357,394,790,1
348,185,663,196,193,387,378,869,1
332,168,636,189,194,404,348,833,1
309,175,605,183,208,375,369,830,1
348,180,548,177,217,432,425,822,1
340,172,598,178,183,437,404,784,1
354,178,530,153,159,375,394,741,1
355,173,520,146,146,385,401,732,1
350,167,531,139,126,362,369,664,1
318,175,493,142,125,325,322,698,1
378,175,395,126,121,318,316,708,1
371,159,370,116,117,332,277,632,1
367,168,365,110,115,301,267,685,1
361,153,361,103,114,297,264,682,1
376,144,346,94,94,244,233,630,1
341,130,329,98,113,235,251,639,1
287,133,320,98,125,263,269,611,1
300,133,351,106,123,329,275,579,1
302,133,327,107,121,321,286,659,1
255,129,389,109,126,321,272,600,1
208,119,383,98,107,313,274,591,1
228,118,447,103,117,292,245,540,1
200,104,417,103,120,216,201,490,1
201,104,420,118,154,238,202,457,1
251,119,443,118,151,233,216,461,1
287,132,457,130,156,238,215,457,1
266,128,438,130,143,216,208,455,1
275,129,432,124,145,205,222,470,1
293,132,470,130,120,221,267,438,1
267,132,415,128,117,228,259,433,1
231,127,386,119,126,211,268,431,1
252,121,383,112,122,257,272,436,1
266,132,383,120,117,251,276,454,1
259,124,383,103,100,220,218,427,1
260,110,437,112,97,218,252,471,1
276,104,447,119,79,219,224,428,1
255,103,416,117,100,240,227,422,1
249,86,461,114,97,260,206,408,1
215,93,408,109,114,259,216,461,1
204,109,372,99,113,266,180,433,1
187,111,377,94,114,311,187,467,1
212,122,410,98,103,306,205,496,1
188,123,371,88,109,305,201,506,1
195,119,404,85,105,328,188,470,1
205,108,393,94,109,316,182,446,1
236,110,395,89,112,282,184,430,1
233,108,381,91,111,246,174,424,1
233,118,419,102,114,234,185,453,1
256,126,407,105,100,229,179,427,1
241,121,407,96,102,242,189,415,1
215,120,420,97,96,299,221,423,1
196,112,426,90,122,301,208,399,1
213,124,443,87,114,307,203,329,1
210,129,471,105,123,320,202,358,1
218,128,462,115,132,406,212,386,1
260,126,530,114,138,413,240,354,1
274,132,536,116,115,459,259,354,1
283,130,501,115,120,460,266,373,1
280,127,468,109,125,488,305,454,1
285,135,459,104,120,475,312,434,1
244,133,392,105,111,477,264,460,1
258,129,363,98,106,440,251,450,1
243,126,356,99,104,433,256,473,1
250,134,356,93,92,405,233,467,1
233,133,363,89,104,338,225,477,1
249,130,328,95,111,266,235,480,1
257,141,335,103,111,231,239,531,1
259,135,331,106,119,270,237,522,1
239,120,365,107,121,278,226,452,1
245,109,357,108,101,313,209,491,1
227,109,335,102,104,314,217,473,1
177,87,316,97,104,317,199,431,1
180,82,306,88,93,282,185,398,1
188,87,311,87,94,249,177,387,1
224,90,303,91,107,247,212,338,1
223,88,324,97,97,256,202,355,1
248,107,344,97,99,288,197,333,1
238,107,352,95,100,329,226,368,1
222,101,296,89,94,334,232,399,1
170,98,329,99,82,332,206,370,1
181,104,349,100,88,360,227,424,1
181,105,362,103,94,335,240,421,1
197,102,354,107,97,369,223,405,1
199,105,371,109,110,359,221,457,1
244,112,390,105,105,359,217,504,1
247,114,367,105,103,351,225,463,1
249,103,336,102,93,376,226,481,1
250,113,355,99,82,368,229,472,1
252,114,334,96,68,397,218,393,1
216,114,357,99,75,374,214,326,1
196,112,378,94,78,361,176,309,1
195,112,383,94,84,422,163,289,1
195,101,353,90,83,377,137,305,1
197,98,384,107,83,346,147,340,1
216,91,425,96,85,381,165,352,1
234,92,419,113,88,384,153,346,1
211,95,411,113,98,347,151,350,1
206,103,417,113,101,375,174,363,1
203,98,405,95,108,399,180,339,1
183,93,315,87,104,375,164,322,1
193,98,316,60,100,375,168,313,1
191,101,314,65,105,329,178,321,1
208,95,347,73,108,305,190,401,1
248,97,391,83,103,284,203,445,1
244,102,364,91,104,324,213,476,1
219,99,345,88,114,321,225,501,1
216,99,427,103,97,365,229,504,1
215,110,424,112,103,378,217,436,1
170,116,530,127,102,434,198,380,1
172,114,533,128,99,402,187,344,1
177,108,523,132,101,536,177,303,1
182,99,457,119,106,506,161,279,1
177,93,480,125,97,532,158,278,1
178,91,335,116,99,523,158,305,1
188,97,325,111,99,552,161,354,1
198,104,352,108,82,576,193,365,1
208,110,402,109,73,591,196,378,1
191,102,391,95,75,554,184,352,1
192,104,396,83,89,528,189,366,1
194,106,426,93,102,511,195,334,1
179,102,464,100,105,323,175,339,1
171,104,456,106,116,327,195,407,1
176,108,434,102,119,416,202,399,1
180,101,400,100,109,433,195,374,1
200,94,456,98,100,450,188,409,1
206,107,434,98,103,465,196,447,1
205,115,400,99,116,447,175,369,1
205,116,408,108,113,409,171,397,1
222,123,403,107,127,375,173,399,1
195,125,320,110,126,336,207,416,1
208,130,293,102,122,325,181,389,1
247,127,300,96,123,384,190,429,1
234,121,278,81,122,374,218,452,1
222,113,286,81,106,396,214,448,1
245,120,270,69,110,421,179,414,1
255,105,269,63,108,422,188,418,1
218,102,261,60,96,387,221,447,1
223,105,259,62,103,392,211,437,1
221,118,283,65,97,360,228,465,1
215,108,287,71,98,359,234,455,1
193,105,270,74,116,341,230,417,1
209,95,261,74,103,311,188,370,1
214,96,302,80,96,252,160,339,1
205,74,301,79,100,257,148,288,1
214,73,327,71,96,220,143,284,1
221,66,323,70,78,264,151,374,1
198,69,353,81,76,275,156,358,1
192,74,327,87,76,271,161,358,1
197,79,318,86,79,272,157,381,1
159,79,306,91,75,272,154,366,1
161,105,303,100,97,293,181,343,1
160,102,272,100,108,282,175,356,1
157,107,327,97,113,279,181,357,1
154,105,337,100,108,269,177,341,1
181,111,332,99,109,311,191,355,1
173,106,336,93,110,279,168,390,1
185,110,373,94,102,293,183,395,1
209,104,336,87,95,324,192,433,1
227,122,335,87,98,343,210,429,1
220,123,330,87,108,294,203,475,1
236,119,345,85,87,283,191,448,1
232,123,353,81,89,308,184,437,1
232,124,363,88,88,310,192,418,1
237,105,371,87,89,291,169,410,1
231,95,367,85,81,339,177,350,1
246,104,360,85,79,350,197,294,1
269,110,343,80,93,332,229,454,1
265,111,343,79,96,328,215,430,1
245,114,378,89,94,334,219,434,1
236,113,364,91,115,358,235,429,1
194,121,409,103,118,373,249,449,1
193,119,409,112,120,402,237,283,1
197,125,404,112,120,398,249,354,1
203,128,345,99,123,448,255,362,1
206,131,359,98,103,392,234,402,1
208,106,317,83,104,384,216,414,1
174,93,296,67,95,393,199,406,1
157,90,260,61,95,376,183,356,1
165,89,299,73,98,313,165,356,1
202,104,357,97,108,344,169,379,1
203,120,370,109,112,347,164,391,1
214,123,406,112,111,338,154,397,1
213,120,410,114,107,347,160,407,1
245,120,398,112,107,373,177,440,1
230,107,338,96,97,373,196,418,1
221,92,354,82,85,366,199,386,1
233,96,314,79,72,330,197,447,1
247,93,302,90,100,352,203,487,1
237,90,284,93,102,372,229,601,1
241,94,300,91,111,374,217,635,1
247,89,266,112,121,347,200,627,1
233,88,314,117,131,335,195,599,1
216,82,332,124,125,319,178,556,1
200,90,367,123,130,274,126,419,1
192,91,370,126,121,281,120,362,1
216,93,355,110,117,343,141,352,1
231,94,371,118,111,374,209,355,1
255,100,356,102,103,406,233,375,1
252,91,335,97,88,455,248,373,1
255,94,342,97,100,448,252,418,1
236,94,376,100,94,409,242,418,1
219,103,352,90,106,381,203,429,1
210,102,357,92,110,359,192,420,1
218,102,340,94,108,375,181,404,1
205,99,315,84,102,355,170,368,1
200,103,279,79,102,354,182,416,1
195,88,236,80,88,345,171,398,1
187,100,331,79,85,343,182,388,1
157,106,344,79,110,234,194,452,1
176,115,381,91,114,244,202,495,1
206,113,392,91,120,249,201,459,1
235,108,411,85,119,253,212,456,1
220,96,357,82,118,225,204,529,1
227,96,389,80,113,276,227,474,1
211,84,372,81,127,336,255,455,1
205,86,358,85,124,336,260,509,1
194,89,348,96,126,338,246,489,1
209,92,328,107,147,393,241,433,1
200,96,270,110,137,435,215,434,1
194,103,311,120,145,372,161,372,1
226,106,326,116,143,375,143,313,1
204,115,288,105,163,393,150,345,1
199,113,305,90,147,360,141,337,1
215,103,394,99,154,270,138,335,1
224,91,354,79,131,297,151,334,1
173,88,357,80,133,303,155,330,1
192,84,379,85,120,305,168,393,1
185,92,389,94,117,282,162,395,1
200,93,316,86,132,320,153,432,1
197,100,300,83,129,324,147,435,1
198,99,296,86,129,311,143,444,1
199,92,331,81,132,310,134,372,1
236,86,311,79,127,297,145,391,1
249,88,312,82,105,266,143,336,1
250,86,374,93,106,245,138,316,1
255,84,361,92,108,254,142,320,1
242,85,321,96,130,305,181,324,1
209,89,312,93,139,352,178,305,1
191,91,357,97,141,340,171,303,2
214,89,311,90,139,345,179,308,2
227,92,381,91,140,376,207,266,2
238,92,393,87,111,358,198,257,2
238,90,415,86,112,417,227,266,2
242,90,419,84,103,430,255,397,2
273,110,483,101,107,474,280,493,2
274,104,431,101,106,452,260,501,2
269,109,413,100,115,547,290,559,2
270,119,433,98,104,521,291,545,2
251,118,396,93,109,523,288,472,2
207,109,324,77,128,526,293,492,2
185,108,317,72,127,621,309,488,2
186,109,376,87,120,631,284,423,2
215,94,407,113,122,681,286,431,2
227,92,408,109,138,690,270,410,2
237,149,387,105,122,664,230,246,2
236,268,392,107,128,573,203,236,2
242,366,351,104,134,439,174,235,2
226,394,259,92,157,321,129,218,2
209,409,224,123,281,411,157,221,2
179,393,224,131,295,566,225,293,2
169,334,220,131,296,594,233,322,2
156,229,221,129,291,592,226,310,2
162,189,200,116,279,571,217,285,2
150,157,191,84,155,480,194,276,2
146,154,175,70,138,257,114,191,2
142,137,146,65,144,211,95,115,2
128,230,84,55,148,236,99,89,2
113,343,88,71,170,270,265,85,2
125,379,112,70,151,276,275,81,2
156,562,174,73,210,277,294,82,2
215,660,215,94,264,257,391,95,2
237,832,264,98,267,231,406,97,2
350,964,291,92,254,195,327,101,2
481,1082,330,106,257,189,323,122,2
515,1044,332,103,206,170,305,128,2
559,1089,326,89,118,142,179,121,2
639,1069,358,97,100,130,138,136,2
593,927,345,95,94,112,129,128,2
504,807,309,77,77,85,113,108,2
478,774,291,75,62,80,105,95,2
430,643,278,70,47,79,81,96,2
300,435,177,48,37,75,72,70,2
309,487,161,46,37,65,71,71,2
292,454,158,48,35,60,61,74,2
302,487,144,46,32,62,61,72,2
273,458,133,42,37,45,47,67,2
265,445,127,48,44,49,48,71,2
226,380,144,44,45,44,43,70,2
232,375,142,42,45,49,44,72,2
177,277,129,44,45,47,38,67,2
167,324,128,45,41,48,41,65,2
169,342,129,39,34,42,42,62,2
181,357,101,43,33,44,43,64,2
166,395,84,41,33,37,43,51,2
193,420,93,42,33,40,52,54,2
197,388,94,46,34,40,51,60,2
179,361,104,49,34,43,62,60,2
167,335,103,45,33,42,66,64,2
174,378,102,45,32,42,67,65,2
171,361,97,41,29,40,59,66,2
189,376,94,36,29,39,56,67,2
192,366,79,34,35,32,43,68,2
205,380,82,34,40,40,46,60,2
213,283,91,37,41,40,43,62,2
202,266,88,44,44,37,44,65,2
174,231,75,43,42,38,45,56,2
163,245,86,43,40,40,47,51,2
202,290,84,40,36,35,40,55,2
193,303,73,37,36,44,43,56,2
213,358,82,29,34,46,42,57,2
223,419,96,35,35,47,41,60,2
230,447,108,38,36,48,41,67,2
217,418,108,39,35,46,41,68,2
221,420,116,41,37,38,38,65,2
202,403,120,43,38,47,39,61,2
214,357,111,40,37,48,39,62,2
221,341,92,39,32,48,40,56,2
189,327,88,39,32,48,41,59,2
196,289,72,39,28,47,40,58,2
188,335,66,37,27,38,40,54,2
168,330,71,37,32,43,45,53,2
151,308,70,35,31,40,42,56,2
141,294,74,33,31,42,42,44,2
189,310,93,34,31,43,41,45,2
194,282,83,37,32,46,43,49,2
197,279,77,39,29,46,41,50,2
202,299,75,37,30,46,38,53,2
206,307,74,40,36,48,37,54,2
139,294,58,45,40,47,38,52,2
162,231,56,42,38,43,35,49,2
160,235,65,42,38,39,30,47,2
164,275,69,43,39,46,32,47,2
163,277,68,47,32,41,32,49,2
164,270,63,38,25,41,31,50,2
144,314,66,36,25,42,34,50,2
161,341,83,42,26,40,47,66,2
153,286,83,41,24,29,47,65,2
162,278,84,33,28,49,50,70,2
174,274,85,36,32,50,52,70,2
186,233,89,42,34,49,52,69,2
220,226,73,35,35,50,43,63,2
231,223,78,35,35,57,45,59,2
227,248,77,37,29,47,48,56,2
225,249,76,34,27,48,46,54,2
207,242,76,35,27,50,44,55,2
170,200,71,39,29,49,40,44,2
172,199,66,41,28,44,40,50,2
175,180,77,42,30,41,31,48,2
165,216,79,42,29,39,34,51,2
229,242,79,39,30,39,35,54,2
212,237,84,36,27,42,39,54,2
196,242,80,37,27,40,38,48,2
192,233,67,34,28,42,44,51,2
191,220,66,39,29,43,44,50,2
103,183,64,38,25,42,43,46,2
112,182,61,39,26,36,38,57,2
129,175,62,36,27,39,38,58,2
139,197,65,36,25,35,30,56,2
140,215,81,34,25,39,29,57,2
161,216,78,31,24,37,32,59,2
159,281,85,32,25,39,31,48,2
157,281,85,31,27,36,29,47,2
146,263,92,35,29,35,32,45,2
152,230,78,33,29,26,30,46,2
140,263,76,36,31,27,28,39,2
155,247,84,39,29,28,30,43,2
169,257,89,39,27,40,38,43,2
168,268,82,34,28,39,35,42,2
169,270,80,34,25,42,35,39,2
168,248,86,35,26,42,34,41,2
166,247,74,36,27,40,34,49,2
159,270,65,37,27,31,30,46,2
168,318,63,40,24,54,41,50,2
181,316,68,42,29,53,42,51,2
233,318,65,40,28,54,43,56,2
238,304,64,35,28,59,45,50,2
231,277,66,35,27,59,44,51,2
234,224,65,31,27,46,37,51,2
240,229,63,30,27,45,36,50,2
204,323,71,29,26,46,39,51,2
180,307,65,30,26,41,35,48,2
198,314,70,33,27,40,35,48,2
197,314,70,33,27,33,34,47,2
175,321,77,36,24,43,37,48,2
153,210,68,35,27,42,38,42,2
209,200,69,33,27,42,38,42,2
191,190,65,32,28,42,37,41,2
179,212,66,33,28,45,46,35,2
186,199,60,29,28,40,44,34,2
201,257,55,29,26,42,42,37,2
156,266,60,31,27,42,43,39,2
199,274,62,29,25,43,47,42,2
205,276,59,34,26,48,42,43,2
199,294,66,34,24,47,46,41,2
185,278,84,37,25,49,46,37,2
182,303,86,36,23,52,47,42,2
132,296,88,36,22,55,54,38,2
132,308,100,33,21,51,60,40,2
141,303,101,36,23,55,57,44,2
144,281,97,33,23,52,57,44,2
137,257,94,34,23,53,61,43,2
133,266,95,33,26,50,56,45,2
120,258,90,35,27,48,50,43,2
97,261,83,45,26,42,55,39,2
89,271,72,48,29,44,54,38,2
97,303,78,50,27,46,51,41,2
105,294,75,56,26,45,49,40,2
105,261,61,54,25,46,49,40,2
109,254,61,52,28,45,41,41,2
132,250,63,58,29,49,44,41,2
156,196,63,62,34,45,42,45,2
149,187,84,65,33,46,40,45,2
161,188,87,67,35,45,36,49,2
164,192,88,78,39,46,35,51,2
143,225,103,78,39,37,31,50,2
118,220,97,73,36,33,28,40,2
118,256,89,83,39,31,28,42,2
112,261,93,90,40,36,27,38,2
115,267,94,77,35,40,33,38,2
129,218,79,72,34,40,32,39,2
118,276,102,82,38,42,35,42,2
134,264,106,72,39,43,35,41,2
178,316,101,63,37,36,35,50,2
196,301,103,63,40,29,32,51,2
192,305,112,67,40,37,34,51,2
194,277,98,55,35,40,36,48,2
198,296,91,49,37,44,48,53,2
152,230,90,57,38,45,49,44,2
138,259,90,55,38,45,49,40,2
139,275,77,50,40,38,49,42,2
143,312,89,58,42,41,48,44,2
122,283,83,55,37,35,33,37,2
125,298,93,54,38,38,40,39,2
104,318,98,54,35,39,41,40,2
106,301,94,53,33,48,44,36,2
90,245,76,43,29,43,41,32,2
120,237,80,42,29,43,45,42,2
125,231,81,33,25,40,40,43,2
126,158,77,32,26,40,36,42,2
115,170,86,34,23,28,30,43,2
119,174,85,35,23,28,32,43,2
90,228,89,40,26,31,29,33,2
80,230,81,38,28,29,28,37,2
74,229,79,39,27,30,29,35,2
73,221,88,38,28,30,29,35,2
61,224,90,37,27,28,26,35,2
56,272,102,36,25,26,28,37,2
51,264,104,35,25,40,29,32,2
72,283,101,32,22,40,28,34,2
72,282,90,32,24,41,30,33,2
77,284,92,36,26,41,32,33,2
75,203,76,37,29,41,31,34,2
75,209,73,38,29,29,29,33,2
58,189,77,42,32,27,29,32,2
59,188,75,43,31,26,28,31,2
61,221,76,39,30,27,27,32,2
61,202,68,40,29,32,27,27,2
58,215,67,38,28,32,26,27,2
62,218,58,34,27,35,25,27,2
58,221,90,34,27,33,25,29,2
63,168,91,35,29,34,28,27,2
63,279,93,35,27,28,29,36,2
67,269,95,39,28,28,32,43,2
59,275,100,45,28,28,37,53,2
68,281,70,48,26,29,38,63,2
83,298,64,48,26,32,41,66,2
85,208,64,49,28,34,44,68,2
102,199,58,46,26,33,43,66,2
109,192,76,42,27,33,39,58,2
105,199,85,37,29,31,38,48,2
90,194,88,36,26,28,33,42,2
90,215,95,34,25,37,28,33,2
84,219,101,35,27,39,26,33,2
91,243,85,33,26,43,27,35,2
90,227,83,34,26,46,31,33,2
90,226,84,34,27,47,34,37,2
98,230,87,30,27,44,35,39,2
89,293,84,32,27,45,39,38,2
76,274,88,32,27,41,46,39,2
91,280,85,31,25,40,46,41,2
122,314,85,30,26,39,44,43,2
132,300,83,35,26,45,43,46,2
137,249,81,33,24,65,40,46,2
138,243,78,35,22,73,32,45,2
131,315,94,38,26,73,31,44,2
101,280,87,39,25,77,31,40,2
101,356,86,37,27,78,37,35,2
93,378,92,42,31,62,36,33,2
90,380,92,46,33,53,35,31,2
90,324,85,46,30,54,37,31,2
101,335,89,46,33,48,36,40,2
90,248,84,46,30,49,50,37,2
87,202,86,44,28,48,52,39,2
87,223,84,37,28,48,53,41,2
85,241,84,33,28,49,50,39,2
77,245,85,35,26,57,53,33,2
55,243,81,33,26,47,35,31,2
57,255,72,31,24,47,34,30,2
54,231,81,30,23,54,34,31,2
59,206,90,35,24,58,46,35,2
51,164,89,35,23,61,50,32,2
65,196,89,35,26,62,52,36,2
85,210,91,36,27,61,51,38,2
90,255,80,36,29,56,50,39,2
89,264,57,31,27,58,43,35,2
87,260,49,30,28,47,37,34,2
82,232,49,32,28,46,36,31,2
60,223,79,35,27,58,41,27,2
53,189,81,36,24,59,42,27,2
48,188,81,35,27,54,42,25,2
50,195,98,34,26,53,42,28,2
59,207,103,35,25,53,41,35,2
63,225,80,31,24,48,37,37,2
64,284,82,31,29,45,34,37,2
68,301,89,35,27,41,32,40,2
67,310,71,35,27,41,29,39,2
57,322,75,35,26,40,27,34,2
52,297,74,33,27,34,27,32,2
53,229,71,33,23,43,33,32,2
48,187,68,29,24,41,32,36,2
52,189,70,28,26,46,38,37,2
50,215,65,26,26,46,39,39,2
47,221,72,25,24,46,44,41,2
62,297,78,29,27,43,42,41,2
69,318,72,29,28,53,43,39,2
70,337,75,34,26,49,40,38,3
70,299,71,33,26,49,38,36,3
70,292,83,38,26,53,34,37,3
54,210,79,35,24,51,33,37,3
73,222,86,36,22,42,34,33,3
70,176,92,34,23,41,31,32,3
75,190,92,33,25,41,29,33,3
76,211,80,30,24,31,25,41,3
77,228,96,30,27,26,23,41,3
82,235,90,31,27,26,22,49,3
84,238,81,28,27,24,23,52,3
82,235,80,28,28,24,26,53,3
83,244,77,28,29,27,24,44,3
85,257,69,30,29,26,26,46,3
57,218,78,30,31,27,27,36,3
54,219,75,29,31,28,26,36,3
52,209,79,31,32,28,27,35,3
49,208,90,31,32,26,29,37,3
51,183,85,30,29,28,27,33,3
58,205,77,29,25,25,26,41,3
68,214,85,32,24,26,29,39,3
71,228,84,29,22,26,28,38,3
71,258,71,29,20,26,29,38,3
72,353,86,31,22,27,30,39,3
73,340,90,30,23,26,31,39,3
61,335,93,30,24,24,29,38,3
55,331,90,32,23,24,30,37,3
54,312,88,33,24,25,28,37,3
50,199,74,29,24,26,28,41,3
48,205,68,31,23,39,35,37,3
83,259,103,32,23,64,107,52,3
167,430,143,36,54,136,245,62,3
193,523,207,53,97,257,296,84,3
295,656,264,60,105,282,314,124,3
445,836,340,88,126,307,388,188,3
490,1047,402,97,191,349,491,192,3
575,1076,458,130,215,454,563,251,3
654,1135,445,130,226,432,614,272,3
658,1131,425,134,231,438,627,265,3
591,1060,478,127,221,438,627,232,3
598,921,505,128,216,474,578,242,3
540,978,496,110,221,430,533,198,3
501,951,529,119,200,406,513,200,3
552,969,585,157,253,457,542,234,3
615,1029,541,162,291,509,552,237,3
610,1018,486,159,263,508,592,247,3
592,982,453,152,257,491,548,241,3
563,937,417,144,255,498,515,214,3
537,954,397,106,206,437,507,177,3
466,1011,388,89,200,431,492,170,3
444,1024,392,86,248,412,473,153,3
443,942,397,85,234,368,491,148,3
444,977,401,81,269,370,499,155,3
385,912,365,69,274,375,527,161,3
400,845,363,73,256,328,501,172,3
393,874,353,71,217,285,471,165,3
382,947,343,69,212,295,472,161,3
354,944,359,72,177,286,467,172,3
325,949,361,68,182,363,385,158,3
297,941,355,72,216,365,437,162,3
305,879,346,75,223,382,472,160,3
307,785,382,86,229,380,473,158,3
312,769,362,84,220,382,531,160,3
386,765,382,87,199,302,555,166,3
421,656,366,80,141,267,497,159,3
471,749,423,88,112,218,455,159,3
477,811,389,80,102,355,473,170,3
484,806,388,76,143,345,413,154,3
433,848,338,75,150,382,396,159,3
386,920,363,72,141,389,400,144,3
334,906,373,74,154,400,389,157,3
347,883,402,70,166,339,382,149,3
333,840,400,74,140,333,365,143,3
344,877,443,74,144,300,370,145,3
353,869,433,82,150,296,409,154,3
388,770,366,71,167,288,398,144,3
377,817,331,72,206,221,382,160,3
374,858,364,74,224,232,365,173,3
373,824,340,71,236,226,349,161,3
381,833,352,65,237,239,307,161,3
387,987,457,75,232,277,363,160,3
376,1059,508,82,261,333,368,142,3
389,1079,517,82,253,355,373,138,3
431,1066,522,96,245,371,367,143,3
431,1021,572,101,249,407,381,145,3
419,933,492,94,240,412,364,141,3
454,861,459,89,158,373,326,148,3
505,862,470,92,144,348,354,143,3
472,875,452,97,143,340,365,157,3
473,933,379,94,140,279,342,173,3
421,943,401,95,194,250,327,167,3
391,926,392,98,262,276,307,169,3
311,916,343,92,285,300,302,171,3
322,921,369,74,286,294,354,156,3
330,874,340,84,300,299,390,132,3
335,870,333,83,278,273,366,147,3
332,824,354,78,221,263,407,133,3
340,750,387,82,188,261,387,125,3
335,706,371,97,197,294,352,127,3
295,690,364,84,175,291,312,125,3
309,617,381,85,165,321,344,122,3
296,603,337,86,165,321,303,131,3
323,606,336,89,166,312,310,130,3
309,634,337,87,149,292,379,137,3
379,674,337,88,137,289,380,137,3
451,671,302,88,123,263,350,135,3
465,713,313,86,121,278,367,152,3
506,722,260,75,112,263,356,148,3
526,691,274,56,136,287,253,132,3
480,613,296,54,160,290,300,137,3
418,732,316,65,159,283,313,128,3
462,701,306,69,152,290,324,106,3
406,723,328,72,165,297,325,109,3
408,769,321,84,139,266,328,113,3
440,770,336,91,126,281,325,120,3
466,681,318,81,196,303,395,131,3
433,683,356,79,206,254,357,145,3
460,700,334,78,202,259,364,154,3
451,607,312,75,204,248,387,154,3
463,669,312,81,218,240,351,160,3
441,662,294,81,154,210,258,148,3
500,691,262,88,142,206,290,140,3
458,744,304,89,138,197,283,131,3
447,735,309,82,156,236,247,130,3
425,763,339,77,176,233,295,120,3
418,808,350,77,182,252,294,123,3
341,816,377,68,180,258,323,118,3
370,722,359,72,182,267,356,129,3
353,753,362,75,192,263,373,125,3
345,765,328,70,166,271,358,115,3
335,769,321,67,163,260,375,114,3
340,759,275,79,200,289,419,135,3
371,798,276,86,204,282,387,171,3
