Channel 0,Channel 1,Channel 2,Channel 3,Channel 4,Channel 5,Channel 6,Channel 7,actionCategry
24,29,167,60,52,32,32,71,0
32,27,179,67,70,31,33,58,0
33,27,130,66,76,33,32,56,0
35,25,117,62,78,35,38,60,0
52,23,109,54,90,37,39,70,0
53,26,108,68,88,44,43,74,0
54,26,92,91,75,48,44,68,0
54,29,80,97,89,58,48,68,0
67,32,102,101,113,70,45,67,0
57,33,102,102,118,74,50,61,0
59,31,129,107,130,89,48,61,0
58,36,139,85,146,100,49,74,0
58,36,144,84,143,107,57,78,0
61,35,148,92,128,102,78,108,0
62,41,226,110,118,101,85,109,0
71,43,240,128,107,121,119,143,0
90,66,459,147,97,208,154,175,0
103,97,500,167,91,230,167,204,0
96,110,537,167,85,232,194,195,0
96,112,538,156,82,234,192,200,1
87,113,531,142,82,219,174,181,1
67,101,374,124,61,133,144,148,1
43,77,336,92,49,73,126,104,1
33,57,274,78,47,74,56,88,1
29,51,227,104,51,66,46,76,1
28,47,217,94,43,74,38,66,1
25,41,185,87,43,69,35,57,1
25,32,144,88,46,76,33,53,1
22,33,126,88,50,94,35,53,1
25,30,93,50,54,95,39,50,1
28,31,86,47,64,87,37,40,1
27,31,71,45,65,90,37,39,1
26,31,62,38,82,85,35,35,1
28,28,48,37,87,60,38,57,1
28,31,35,38,81,72,34,58,1
28,31,33,35,76,73,38,61,1
29,32,30,36,92,68,40,64,1
29,30,26,33,82,65,40,65,1
26,28,23,33,79,61,43,47,1
26,26,28,33,83,39,51,46,1
25,27,29,31,83,48,50,43,1
24,26,30,30,62,51,50,37,1
24,28,31,30,56,52,48,37,1
27,28,30,30,52,55,46,46,1
25,29,28,31,54,64,54,54,1
27,28,28,32,50,60,67,67,1
28,28,31,31,50,59,67,67,1
28,28,30,29,46,58,69,67,1
26,29,31,29,44,55,66,61,1
30,24,31,26,49,44,57,67,1
27,27,30,30,53,53,45,65,1
27,28,29,30,54,57,46,71,1
28,27,30,38,58,59,44,71,1
27,30,30,40,58,61,43,73,1
24,31,29,38,49,64,39,67,1
27,30,31,39,48,56,34,70,1
27,33,28,41,66,53,33,66,1
27,33,28,40,73,59,35,64,1
25,30,28,38,76,56,35,63,1
29,31,29,40,77,54,35,63,1
27,29,27,40,92,63,40,55,1
30,26,28,40,83,67,45,57,1
31,31,26,37,76,62,45,58,1
31,30,26,36,86,60,50,59,1
29,29,29,35,89,60,51,53,1
29,33,27,31,72,46,46,44,1
28,35,30,30,67,48,39,42,1
27,29,31,29,71,50,36,46,1
27,29,31,28,59,50,30,45,1
26,32,29,28,59,55,33,47,1
29,28,29,37,69,54,35,49,1
30,27,26,35,72,46,40,47,1
29,26,25,35,77,43,40,45,1
30,26,27,36,75,43,40,42,1
31,26,30,36,75,53,34,41,1
29,28,31,27,68,56,70,51,1
27,26,30,29,79,57,72,53,1
26,29,32,35,72,60,73,52,1
28,29,34,35,69,63,76,54,1
27,28,30,32,63,50,75,54,1
26,27,30,32,65,52,50,43,1
26,32,31,30,61,53,44,56,1
29,31,30,29,70,51,43,60,1
28,32,25,28,72,49,42,59,1
27,31,25,29,72,52,42,57,1
28,31,29,36,104,57,41,60,1
112,28,30,45,111,61,63,68,1
122,27,30,47,104,61,71,76,1
123,26,30,48,104,60,79,78,1
125,25,30,50,106,57,82,80,1
158,28,53,67,97,55,80,84,1
218,58,89,94,85,53,78,98,1
299,90,113,106,89,62,87,121,1
302,93,126,107,93,72,82,126,1
306,94,129,108,93,73,81,129,1
292,93,123,99,80,68,81,127,1
308,93,102,75,91,68,94,142,1
332,101,94,68,92,71,86,129,1
361,105,226,102,97,100,99,138,1
370,119,367,135,99,107,123,157,1
427,136,411,160,93,111,138,172,1
425,140,416,177,96,129,173,206,1
425,146,418,182,92,136,183,231,1
420,148,375,174,85,113,177,228,1
466,138,246,163,88,114,194,255,1
556,173,164,172,102,118,242,296,1
535,167,156,166,93,96,216,263,1
497,144,145,168,91,76,206,240,1
528,147,110,160,90,83,207,244,1
553,168,94,151,90,110,185,222,1
441,122,86,116,76,126,120,152,1
444,118,78,98,82,150,116,151,1
426,120,65,91,90,155,116,146,1
370,107,48,89,88,151,112,130,1
261,72,32,81,83,129,101,93,1
209,61,28,68,75,122,92,87,1
183,60,33,64,61,118,79,72,1
180,54,33,39,48,117,79,71,1
206,67,36,46,51,117,80,80,1
222,69,35,43,51,139,82,83,1
250,72,36,49,50,142,68,84,1
238,76,34,47,51,130,69,79,1
253,79,32,47,59,135,68,80,1
306,88,32,41,62,152,63,74,1
315,93,36,48,65,145,62,72,1
302,98,37,49,72,132,57,70,1
400,135,48,71,86,127,99,101,1
397,133,51,73,84,118,102,99,1
361,124,49,79,81,95,102,100,1
360,120,48,77,84,82,104,98,1
359,115,47,74,83,95,108,99,1
240,65,35,57,66,90,71,63,1
232,61,34,57,65,97,64,63,1
213,58,33,48,65,94,63,56,1
243,72,33,52,59,92,55,69,1
268,71,33,52,56,85,45,67,1
272,71,31,49,54,84,43,67,1
280,70,30,44,50,79,42,68,1
278,69,30,46,56,84,41,72,1
274,66,29,42,53,86,40,66,1
283,69,29,38,54,89,43,67,1
301,71,30,40,56,92,46,71,1
304,71,28,39,52,92,48,76,1
309,75,30,38,51,103,48,74,1
295,79,31,42,62,97,52,70,1
290,77,31,49,66,86,52,81,1
280,73,30,49,68,86,49,82,1
264,74,29,50,73,85,47,78,1
269,77,31,50,76,81,47,74,1
253,60,32,49,70,102,58,76,1
232,63,35,48,67,101,58,60,1
251,70,38,49,68,100,60,60,1
253,70,38,49,67,98,61,60,1
266,67,35,52,62,89,60,64,1
251,65,34,47,58,68,43,59,1
328,102,36,48,52,72,39,81,1
324,99,35,46,49,76,36,80,1
329,100,35,46,47,80,34,82,1
327,101,33,42,53,81,34,83,1
320,101,33,38,52,76,33,81,1
229,64,28,36,56,77,33,62,1
256,79,30,43,59,73,32,62,1
253,81,31,44,57,65,32,61,1
214,78,31,43,54,67,38,52,1
216,79,28,47,56,70,41,50,1
235,78,34,50,58,73,48,67,1
178,70,33,45,54,79,50,65,1
180,71,35,44,59,81,50,68,1
206,70,36,44,54,99,51,71,1
236,82,38,41,53,117,56,79,1
241,82,31,30,45,113,49,65,1
266,97,30,27,49,133,49,64,1
266,99,29,32,47,139,50,63,1
252,99,29,33,52,124,48,59,1
224,88,27,32,52,105,41,51,1
189,88,26,34,54,107,42,49,1
147,57,23,32,51,86,46,44,1
191,65,24,33,65,81,46,56,1
190,72,24,39,65,80,45,60,1
186,71,24,40,66,86,43,59,1
201,73,27,39,66,83,41,64,1
208,70,27,39,66,71,34,65,1
176,54,25,41,65,68,31,55,1
178,48,30,39,68,72,29,53,1
197,60,33,45,72,77,40,58,1
188,55,30,46,73,79,43,53,1
206,60,33,51,75,79,42,56,1
203,61,32,45,62,81,43,54,1
220,60,28,41,52,80,43,54,1
210,56,27,36,45,80,41,49,1
224,61,30,36,45,83,42,57,1
206,78,32,31,44,86,42,59,1
232,83,35,34,44,83,43,66,1
223,82,38,39,63,85,47,67,1
229,77,38,41,69,85,40,71,1
215,75,37,45,73,84,48,63,1
283,88,40,49,73,82,53,67,1
276,94,37,46,72,81,52,63,1
277,94,35,44,59,78,49,61,1
285,95,34,41,54,64,49,57,1
293,95,35,37,44,59,38,60,1
227,73,27,32,51,55,31,49,1
212,65,28,32,54,57,32,45,1
205,63,29,30,53,55,30,43,1
176,63,30,32,57,73,33,41,1
241,65,29,33,63,99,35,54,1
244,61,29,31,57,103,35,53,1
264,77,32,34,55,107,39,58,1
290,83,30,36,55,105,39,64,1
300,86,30,34,48,91,35,66,1
287,91,35,42,50,58,37,63,1
275,89,37,42,53,53,37,62,1
245,72,37,44,55,59,35,59,1
213,67,36,42,53,60,37,54,1
306,66,38,44,53,73,40,74,1
290,70,36,37,49,81,38,73,1
292,68,35,36,42,91,39,74,1
332,73,32,32,51,90,36,79,1
328,76,32,37,54,89,34,77,1
234,73,30,34,54,79,30,57,1
208,57,23,33,55,87,33,47,1
210,58,22,35,62,91,34,46,1
151,51,24,36,55,88,36,43,1
144,47,23,34,53,91,37,43,1
152,45,25,35,56,102,41,42,1
140,49,25,33,53,91,37,42,1
128,52,26,35,46,81,36,42,1
138,48,24,35,47,91,36,39,1
146,53,24,34,47,90,37,42,1
201,75,28,33,42,80,35,63,1
213,72,28,32,43,76,33,63,1
218,74,29,29,38,69,31,67,1
210,75,29,30,36,53,27,65,1
212,75,29,32,37,56,27,64,1
239,61,29,35,39,61,28,74,1
230,60,30,34,36,62,28,73,1
235,65,31,34,39,67,35,71,1
241,63,32,33,38,70,36,72,1
259,61,32,31,36,73,38,75,1
279,70,34,31,50,68,37,65,1
285,73,36,32,52,68,39,66,1
279,67,35,33,52,63,38,67,1
299,69,34,31,49,56,35,64,1
285,71,34,33,50,45,32,61,1
228,69,31,35,50,70,33,63,1
224,64,27,38,65,75,35,64,1
233,62,25,39,65,73,30,65,1
213,66,26,41,68,80,32,68,1
217,64,28,40,73,98,38,69,1
175,54,25,38,69,99,40,51,1
192,58,28,36,62,104,41,52,1
178,57,29,34,62,107,41,48,1
263,59,28,32,61,106,44,70,1
270,59,26,36,57,96,40,71,1
274,57,27,36,53,81,38,70,1
256,54,26,36,45,77,34,67,1
257,58,28,36,46,78,36,67,1
235,70,32,40,53,84,33,58,1
222,69,32,38,53,84,34,55,1
253,75,32,38,51,83,32,65,1
266,76,32,35,52,77,33,68,1
279,76,31,34,51,74,31,72,1
288,68,31,34,45,64,35,75,1
291,69,32,31,46,55,33,76,1
269,63,30,34,53,59,33,70,1
266,63,29,35,52,57,34,68,1
252,60,29,37,59,65,33,65,1
236,61,29,41,62,70,30,54,1
232,60,30,42,70,73,32,52,1
225,60,33,39,66,69,33,51,1
228,58,32,40,65,69,31,52,1
283,69,35,38,61,64,32,65,1
362,83,37,33,56,62,40,96,1
378,93,38,30,43,65,40,100,1
406,92,37,37,53,63,39,106,1
407,96,42,39,58,63,41,107,1
376,89,38,40,60,69,45,101,1
269,75,33,39,58,71,43,69,1
241,60,32,44,59,64,42,62,1
190,58,31,38,51,66,43,50,1
183,51,26,35,49,69,42,48,1
182,54,26,32,46,68,38,47,1
158,45,27,34,48,63,29,40,1
160,44,26,27,45,66,29,39,1
160,44,25,30,44,62,26,40,1
154,46,25,28,43,62,24,39,1
147,43,25,30,40,53,24,39,1
140,38,24,27,40,50,25,41,1
168,40,26,30,44,54,26,45,1
164,43,26,28,43,56,28,44,1
160,38,27,29,46,55,29,40,1
159,48,30,28,46,54,28,42,1
248,67,29,33,56,53,30,52,1
235,67,27,33,53,47,31,49,1
254,69,27,35,56,62,32,55,1
262,69,26,35,54,67,31,56,1
270,71,28,36,52,68,33,56,1
215,54,30,33,49,70,31,49,1
224,55,30,31,51,74,30,50,1
217,51,29,30,44,61,28,47,1
210,58,30,30,44,55,28,49,1
204,48,27,28,44,55,30,46,1
185,48,25,27,42,51,31,43,1
181,48,26,29,45,48,32,41,2
172,53,27,27,46,57,34,45,2
176,45,27,26,48,54,32,42,2
166,56,29,25,48,54,29,42,2
150,55,29,25,47,55,29,39,2
171,54,28,25,43,51,26,41,2
184,59,28,27,45,47,26,33,2
178,62,27,30,48,51,27,36,2
198,51,24,33,51,54,28,38,2
228,58,24,35,52,55,25,40,2
220,57,27,34,52,61,26,39,2
232,47,27,36,51,59,24,44,2
229,49,29,34,46,60,24,40,2
231,51,28,33,42,56,25,47,2
208,41,30,34,42,60,29,49,2
200,41,27,36,41,58,29,49,2
170,45,28,36,43,58,31,47,2
166,39,25,36,43,56,30,47,2
150,35,27,38,53,87,35,42,2
153,47,31,37,51,88,38,42,2
137,46,32,36,52,86,37,41,2
121,40,30,32,50,88,37,36,2
183,48,33,34,53,89,37,45,2
189,48,32,34,47,61,35,45,2
175,38,26,32,43,60,31,44,2
171,40,25,31,47,63,32,44,2
172,41,26,31,49,63,30,46,2
101,33,23,31,47,70,33,37,2
63,33,24,29,49,120,44,37,2
53,30,26,30,49,127,52,58,2
50,43,199,128,51,128,79,87,2
52,107,418,188,50,154,110,126,2
71,200,499,272,59,177,144,241,2
80,249,655,316,64,154,148,255,2
94,271,730,341,72,166,190,315,2
97,277,771,332,73,174,190,323,2
103,292,778,340,80,158,179,316,2
99,285,879,394,76,127,174,252,2
92,253,799,381,71,121,173,244,2
80,233,769,369,68,92,133,159,2
74,228,765,376,67,80,125,134,2
58,191,701,355,58,67,124,121,2
45,128,586,226,57,63,95,97,2
39,110,578,194,54,58,82,81,2
38,108,555,182,60,68,67,66,2
38,99,470,143,56,67,54,63,2
39,95,453,126,58,66,39,57,2
37,78,429,164,61,70,35,55,2
37,76,395,167,68,78,37,52,2
38,70,362,173,58,79,37,52,2
36,68,364,173,59,70,36,38,2
38,67,340,175,58,71,36,39,2
33,52,245,141,56,72,34,36,2
34,66,252,142,53,68,33,35,2
31,70,267,138,48,58,31,33,2
35,76,277,150,47,66,34,41,2
35,77,317,150,46,65,35,40,2
33,76,301,141,45,60,36,41,2
34,76,328,132,45,66,37,42,2
33,73,315,182,47,66,37,40,2
30,69,299,179,46,58,32,32,2
26,68,255,176,53,57,31,38,2
26,72,248,178,54,63,35,39,2
26,64,219,182,50,53,34,39,2
25,60,236,124,49,47,34,38,2
28,58,238,118,54,43,33,34,2
30,55,287,111,53,44,35,26,2
29,51,305,108,50,43,29,22,2
27,45,283,97,50,48,26,23,2
27,49,264,93,57,47,27,25,2
24,45,279,116,51,46,28,26,2
22,43,228,122,45,49,27,28,2
26,47,205,154,49,45,29,29,2
26,46,205,156,55,52,29,25,2
26,43,210,155,53,52,27,25,2
25,45,184,137,52,52,26,23,2
25,42,170,144,63,50,25,21,2
24,38,176,109,59,46,22,23,2
23,36,190,107,53,46,25,28,2
24,41,211,144,51,53,33,36,2
25,45,237,139,60,60,35,37,2
22,45,221,120,50,60,38,37,2
23,42,209,123,52,64,38,38,2
24,44,247,139,53,57,37,38,2
23,41,252,118,51,54,33,29,2
21,38,244,118,49,52,31,31,2
23,35,239,121,54,56,29,32,2
23,36,261,124,53,56,29,33,2
26,52,291,122,52,57,29,33,2
29,51,271,120,57,54,28,41,2
30,50,272,126,51,50,28,41,2
31,53,270,121,51,70,30,40,2
30,55,247,112,61,71,32,37,2
28,39,185,116,63,69,32,35,2
25,43,208,102,59,70,32,29,2
27,41,184,113,58,71,35,34,2
29,49,203,150,56,54,39,40,2
29,46,218,155,48,58,42,45,2
29,47,186,142,48,59,43,50,2
30,44,173,144,49,61,43,48,2
29,48,213,138,51,63,42,46,2
27,42,221,96,63,62,39,42,2
26,41,217,101,59,57,36,37,2
24,39,218,98,57,55,36,30,2
24,41,218,101,56,58,36,33,2
23,42,191,114,58,65,36,40,2
21,39,163,114,45,58,33,41,2
22,42,157,113,46,55,29,44,2
25,41,160,114,48,62,29,44,2
26,39,185,122,52,63,29,41,2
26,33,172,134,50,55,25,38,2
25,32,168,140,47,55,28,34,2
24,31,214,133,45,60,30,33,2
22,33,264,138,55,56,28,38,2
23,46,299,139,53,50,28,38,2
24,49,312,119,50,55,30,34,2
24,48,319,130,48,59,28,33,2
26,48,288,156,49,54,26,43,2
26,47,291,148,43,60,28,43,2
26,35,251,136,44,61,29,44,2
22,35,260,139,45,53,27,43,2
23,35,257,121,53,53,27,44,2
23,34,272,82,53,69,29,32,2
24,33,228,92,51,68,28,28,2
25,35,243,97,47,68,29,28,2
28,31,223,112,48,66,29,27,2
27,35,242,122,52,74,29,29,2
28,42,259,127,52,77,29,39,2
29,42,256,124,50,74,31,43,2
28,43,243,127,50,75,30,44,2
25,44,249,121,50,76,30,45,2
27,45,236,119,41,64,28,43,2
24,38,211,118,49,53,28,38,2
22,44,211,121,50,54,27,34,2
22,44,190,120,50,51,29,36,2
21,43,203,112,46,52,29,35,2
22,39,210,116,45,60,30,36,2
22,40,207,115,41,62,30,37,2
24,33,202,107,39,61,32,40,2
23,28,208,112,38,61,30,37,2
23,29,191,98,41,61,32,37,2
23,29,188,85,44,65,32,37,2
23,28,215,100,44,57,31,49,2
21,29,218,116,44,60,31,48,2
22,30,226,116,45,66,33,48,2
25,34,232,122,46,68,34,48,2
22,32,220,121,55,60,34,48,2
23,35,188,107,53,58,33,31,2
24,35,189,111,56,65,35,37,2
24,34,169,105,55,61,35,37,2
25,34,236,118,57,61,34,42,2
25,34,240,117,45,62,36,42,2
26,34,243,117,45,71,37,43,2
26,33,237,114,48,60,33,37,2
25,37,267,108,48,56,32,38,2
28,36,215,95,47,59,32,33,2
27,38,212,100,56,73,34,33,2
26,38,271,104,58,69,35,34,2
26,38,273,102,62,72,36,33,2
31,34,239,101,63,74,36,37,2
26,32,244,95,62,75,37,40,2
28,33,257,108,58,62,33,43,2
27,35,192,113,56,53,35,47,2
27,35,186,100,50,46,31,46,2
23,39,201,102,49,45,32,42,2
24,40,178,100,48,49,32,39,2
24,38,188,104,46,44,30,36,2
26,36,183,95,44,50,33,41,2
28,36,209,98,48,53,35,45,2
29,33,191,97,48,53,33,46,2
28,33,218,95,46,44,32,44,2
27,34,201,75,44,44,33,43,2
25,34,205,94,44,53,28,38,2
22,34,182,86,38,60,27,31,2
19,32,182,83,40,61,29,30,2
21,32,157,90,45,64,32,32,2
20,29,137,87,46,67,34,38,2
21,27,138,67,48,58,33,34,2
25,25,132,73,52,50,34,37,2
24,26,133,75,52,53,34,37,2
24,23,145,71,49,50,31,37,2
23,23,144,68,52,52,32,34,2
24,27,164,97,55,52,30,33,2
23,29,193,106,49,50,29,35,2
23,30,205,112,49,48,27,35,2
25,34,187,109,48,52,29,39,2
25,33,191,111,49,46,28,36,2
24,31,173,99,46,43,29,36,2
23,32,179,95,48,59,31,37,2
25,30,162,88,48,65,32,38,2
22,26,162,102,48,62,30,33,2
23,27,169,102,45,64,31,36,2
24,32,170,90,57,69,36,42,2
22,29,132,139,57,65,32,39,2
21,30,136,144,57,58,33,38,2
22,30,135,135,58,57,33,38,2
22,30,189,142,56,55,32,35,2
19,25,205,165,49,54,25,28,2
22,31,222,124,45,45,26,35,2
22,31,262,123,44,42,24,47,2
21,30,260,122,45,46,27,49,2
21,33,224,115,45,54,28,51,2
24,34,214,83,39,52,29,50,2
24,31,200,86,41,54,36,51,2
26,34,172,84,41,56,37,40,2
26,35,168,86,37,57,36,37,2
26,36,164,85,44,56,34,41,2
23,37,279,115,44,56,35,43,2
24,50,303,115,43,61,30,38,2
23,56,292,117,44,60,30,38,2
23,56,293,115,44,58,30,39,2
24,54,292,131,43,57,30,31,2
28,53,174,101,42,57,31,32,2
25,43,158,99,40,52,30,30,2
26,31,193,99,40,53,31,29,2
26,31,198,101,41,56,30,28,2
25,31,250,84,41,52,30,28,2
22,32,255,82,43,47,28,22,2
24,26,236,92,47,49,27,28,2
24,25,203,92,47,48,27,28,2
23,26,204,90,45,56,27,28,2
23,25,126,86,44,57,28,28,2
25,24,109,88,51,57,44,29,2
24,25,110,72,46,53,51,33,2
22,30,180,79,45,56,50,37,2
23,30,176,77,51,45,50,38,2
23,31,179,75,45,43,51,40,2
23,31,184,71,40,44,39,40,2
22,34,194,80,40,48,30,40,2
21,34,140,66,42,49,31,39,2
21,32,134,67,36,52,30,39,2
22,35,135,69,43,52,31,38,2
18,36,132,85,46,58,31,37,2
21,35,118,83,48,59,29,28,2
23,33,180,82,47,58,29,24,2
23,33,188,91,47,62,30,25,2
22,29,194,101,40,64,28,23,2
22,26,193,91,46,57,27,23,2
22,25,191,90,44,55,27,25,2
19,26,138,89,45,52,27,24,2
21,27,123,81,46,41,26,24,2
21,28,106,66,50,43,23,24,2
23,30,104,70,41,43,23,26,2
19,30,103,81,43,42,24,24,2
19,26,110,83,41,48,25,25,2
20,27,128,81,41,57,26,26,2
21,28,131,80,49,59,27,26,2
20,26,130,89,48,61,28,24,2
21,26,144,78,48,60,27,23,2
21,28,119,73,48,56,28,23,2
21,31,179,110,48,55,34,30,2
21,31,186,110,50,54,38,31,2
21,33,201,105,54,52,38,33,2
23,34,192,103,54,53,39,33,2
23,33,191,119,55,53,38,35,2
21,30,125,86,54,45,32,30,2
20,27,115,87,52,45,28,28,2
22,29,109,118,47,48,26,27,2
23,32,178,117,49,48,25,29,2
24,35,191,102,48,53,27,27,2
23,33,199,104,49,55,27,27,2
24,34,212,105,44,54,27,27,2
23,33,204,98,44,52,26,27,2
24,31,157,96,43,54,28,24,2
26,29,154,94,42,57,24,33,2
28,32,148,99,41,63,24,34,2
28,31,131,98,42,61,23,34,2
28,32,135,70,42,58,22,33,2
26,36,169,83,43,57,21,34,2
24,33,160,90,43,48,23,29,2
21,33,164,92,48,43,25,32,2
24,35,166,103,40,43,25,33,2
22,35,179,106,41,44,27,33,2
21,28,135,94,41,43,27,32,2
22,30,153,88,41,51,27,30,2
23,34,186,97,40,56,28,27,2
22,32,194,86,43,60,33,26,2
24,33,180,75,42,59,32,26,2
24,34,175,76,39,59,33,28,2
24,33,155,75,39,57,32,27,2
26,28,107,102,39,47,29,23,2
24,29,94,108,37,45,23,23,2
24,26,91,107,35,48,25,25,2
23,25,96,106,38,55,27,26,2
23,23,106,106,40,52,28,29,2
22,33,167,73,44,59,29,32,2
23,33,163,64,41,56,31,32,2
24,36,170,65,44,57,31,30,2
25,37,169,65,42,54,30,27,3
25,42,212,80,44,55,30,27,3
24,33,170,77,40,45,29,27,3
24,32,167,77,45,51,28,32,3
23,31,165,76,45,56,28,32,3
24,32,171,76,47,60,30,34,3
23,30,126,70,47,57,29,33,3
23,33,121,69,51,57,28,32,3
24,32,122,79,48,54,27,32,3
25,33,113,83,49,50,26,34,3
25,34,141,82,48,53,23,33,3
24,30,126,95,52,57,23,32,3
22,28,122,88,46,61,25,32,3
23,30,130,84,48,60,24,29,3
21,31,133,82,45,57,23,28,3
22,29,100,88,54,49,24,27,3
22,30,100,80,53,57,27,28,3
25,30,114,92,53,58,27,29,3
21,28,108,86,53,60,29,33,3
23,27,103,101,62,61,30,32,3
21,28,109,96,57,64,30,33,3
24,34,163,85,53,55,28,34,3
22,34,168,74,59,54,26,33,3
25,37,182,91,59,52,24,28,3
23,36,187,72,51,49,26,28,3
25,36,182,73,54,45,25,34,3
24,31,134,73,57,46,26,32,3
24,30,123,74,52,41,28,30,3
23,28,127,70,50,38,29,30,3
24,27,119,73,57,37,28,29,3
22,25,119,82,52,43,28,21,3
21,27,128,90,50,39,29,25,3
21,28,124,91,51,44,28,30,3
21,30,119,77,50,46,29,34,3
22,35,171,83,42,68,34,38,3
22,57,200,80,53,76,39,47,3
30,73,255,96,57,78,53,92,3
74,97,353,142,57,76,60,142,3
98,345,658,311,76,86,71,166,3
125,402,718,364,99,74,75,309,3
169,428,814,440,108,68,90,412,3
197,436,846,460,110,66,86,482,3
188,434,855,464,110,64,82,498,3
187,291,675,426,101,49,75,509,3
173,217,631,395,83,46,73,450,3
136,159,528,317,63,35,50,373,3
105,138,495,317,57,33,46,307,3
104,138,484,348,55,32,51,273,3
109,114,491,303,58,38,54,254,3
107,94,473,292,50,34,49,247,3
105,108,478,313,52,33,60,260,3
98,121,501,293,52,37,99,224,3
94,119,449,239,59,37,96,214,3
63,123,466,213,53,31,96,203,3
74,121,468,214,55,31,98,198,3
67,104,466,216,54,31,96,150,3
56,78,461,206,61,26,63,133,3
59,94,529,203,60,28,76,138,3
59,90,510,215,58,26,73,126,3
48,93,495,211,57,29,77,114,3
49,95,519,184,56,31,73,111,3
48,89,532,189,50,29,68,115,3
44,75,477,186,50,29,98,112,3
44,76,445,180,50,28,105,113,3
39,77,460,192,51,25,103,102,3
59,86,462,199,50,23,108,105,3
59,87,396,209,56,26,110,99,3
60,83,418,210,55,28,96,89,3
61,80,426,201,54,31,97,97,3
60,87,451,195,54,31,98,105,3
41,79,400,191,54,33,92,97,3
46,89,382,191,46,32,108,105,3
45,93,413,203,46,29,94,97,3
45,97,455,207,47,30,86,86,3
41,102,469,214,49,30,94,107,3
42,105,477,211,48,28,94,111,3
55,96,487,188,45,28,109,112,3
54,94,433,202,43,30,107,110,3
54,93,393,202,41,26,114,112,3
55,82,326,182,38,27,107,88,3
56,78,359,158,39,30,108,96,3
41,81,382,181,56,32,86,90,3
46,75,402,153,54,31,86,105,3
47,76,431,150,56,33,76,103,3
48,81,493,175,59,32,72,103,3
46,76,481,179,60,30,70,93,3
43,82,491,174,59,24,79,95,3
43,90,506,193,61,26,88,111,3
39,87,502,215,61,25,87,114,3
37,91,520,220,60,26,87,112,3
37,91,496,233,61,26,89,114,3
37,88,471,232,58,31,63,109,3
32,80,480,245,59,37,103,104,3
31,78,479,252,61,37,108,103,3
32,64,426,243,61,37,110,102,3
32,64,423,230,58,36,110,101,3
34,68,412,224,49,35,112,99,3
36,70,405,194,55,27,83,75,3
36,67,373,195,57,29,78,79,3
34,64,346,201,58,28,76,91,3
33,64,333,206,57,27,77,91,3
30,50,337,205,59,27,76,91,3
37,55,411,242,60,30,60,88,3
36,61,410,224,60,26,56,79,3
46,85,433,221,64,29,56,70,3
47,84,428,210,64,29,53,70,3
47,91,440,208,62,28,45,62,3
44,99,341,163,61,26,30,61,3
44,98,427,169,63,30,34,63,3
33,82,417,165,55,27,49,54,3
34,84,428,191,57,27,61,78,3
37,83,412,221,63,29,69,107,3
34,75,410,218,57,29,73,104,3
36,86,469,214,50,25,73,105,3
37,84,456,207,53,29,66,106,3
37,87,465,203,52,31,56,92,3
36,92,537,182,53,28,66,74,3
36,88,584,174,47,27,80,84,3
35,84,512,159,49,28,82,90,3
34,84,525,150,45,27,82,92,3
40,91,519,154,47,25,89,93,3
41,85,449,136,54,29,80,89,3
40,95,353,168,56,29,64,76,3
40,104,287,199,61,29,72,67,3
43,106,251,217,63,28,70,66,3
40,104,326,237,61,28,62,60,3
43,110,371,238,47,28,56,62,3
43,100,372,216,53,29,54,64,3
44,103,471,187,46,28,40,71,3
42,105,494,166,46,30,39,71,3
42,112,456,110,45,29,37,82,3
36,104,439,122,45,26,39,71,3
35,106,481,129,43,26,46,70,3
34,87,374,130,45,26,61,67,3
36,93,361,131,46,23,61,61,3
34,82,345,136,48,23,62,54,3
35,83,318,124,49,24,62,55,3
35,82,268,111,45,23,63,57,3
36,105,340,137,50,25,85,102,3
35,99,341,139,51,24,88,112,3
33,116,377,146,52,29,90,111,3
32,118,401,141,48,27,91,114,3
34,132,441,156,52,31,90,126,3
31,126,408,137,47,31,56,94,3
30,125,485,158,47,34,55,85,3
31,110,450,142,46,30,66,82,3
32,106,442,172,53,31,64,76,3
44,102,472,159,54,30,67,68,3
47,90,454,161,55,31,66,67,3
46,89,369,148,54,29,65,70,3
47,92,432,144,53,29,52,72,3
49,93,464,119,71,32,53,82,3
38,78,440,126,66,31,43,73,3
34,74,466,122,64,27,62,74,3
38,76,483,131,65,28,60,74,3
41,67,440,136,71,28,60,82,3
41,88,399,124,54,28,69,76,3
40,102,352,130,58,29,74,78,3
40,106,386,132,60,31,62,85,3
39,121,370,115,56,30,70,83,3
35,122,378,138,55,29,75,74,3
31,109,390,141,48,25,68,73,3
31,94,409,135,43,23,64,67,3
32,93,362,131,39,21,69,54,3
30,77,359,129,43,25,127,68,3
32,80,358,115,48,25,129,78,3
31,78,330,111,51,24,128,78,3
34,94,329,130,54,25,128,82,3
32,89,309,125,54,27,124,82,3
47,124,348,157,60,26,54,73,3
45,122,328,146,50,26,41,57,3
62,134,433,190,49,26,110,81,3
62,124,405,181,49,28,113,77,3
64,129,409,219,51,28,114,83,3
55,98,377,202,60,28,116,86,3
61,119,428,215,62,29,117,93,3
44,107,334,191,61,31,57,70,3
42,109,331,195,59,29,48,65,3
47,112,347,188,71,29,44,59,3
43,108,338,191,59,27,39,60,3
36,82,343,197,56,28,53,58,3
37,86,347,208,61,29,76,64,3
35,83,367,198,63,29,78,66,3
31,76,390,166,59,29,82,66,3
35,78,390,178,62,32,84,55,3
36,75,369,157,62,34,79,92,3
37,91,399,126,57,32,58,97,3
39,92,407,152,63,35,55,109,3
37,102,378,150,51,34,50,110,3
36,110,384,124,49,31,48,111,3
37,114,396,125,47,28,44,77,3
36,114,371,131,58,30,42,66,3
35,115,408,109,50,28,44,47,3
39,109,425,116,54,34,51,50,3
39,100,422,110,51,40,118,61,3
39,109,468,108,58,43,125,67,3
40,94,453,111,48,43,127,71,3
42,113,412,111,48,43,130,73,3
37,115,453,121,45,39,128,69,3
35,117,447,126,44,33,75,58,3
33,107,364,122,35,30,72,77,3
28,112,370,120,43,29,68,73,3
26,92,346,126,43,27,63,73,3
27,83,348,130,44,27,64,78,3
27,90,357,136,45,28,59,80,3
31,103,453,207,56,27,45,63,3
31,100,443,208,49,24,46,63,3
32,105,478,210,51,26,48,63,3
30,104,417,209,56,25,48,57,3
31,94,409,217,62,28,51,55,3
27,78,275,148,60,29,49,48,3
29,81,274,139,62,31,46,52,3
31,79,200,131,64,30,39,49,3
33,77,214,118,63,36,39,55,3
33,87,220,100,65,32,36,54,3
34,102,363,123,62,35,37,55,3
36,104,380,124,60,34,35,59,3
32,102,383,112,54,33,34,58,3
37,109,393,146,51,27,32,56,3
37,102,409,146,50,27,32,60,3
55,89,364,143,59,26,75,75,3
54,79,349,143,61,28,77,70,3
56,76,350,142,62,29,81,72,3
53,67,350,120,60,30,82,71,3
54,69,352,132,56,33,83,68,3
33,72,383,121,52,31,48,50,3
33,71,385,121,51,29,47,50,3
31,76,387,129,50,27,46,47,3
29,75,382,133,53,26,48,53,3
28,87,468,124,52,26,49,60,3
30,83,419,141,58,26,49,60,3
37,97,446,147,58,31,55,72,3
38,108,460,146,61,32,53,75,3
38,113,461,132,62,34,48,73,3
49,163,346,142,69,34,46,67,3
54,184,328,155,61,35,43,66,3
50,181,283,188,58,31,49,58,3
54,182,285,194,57,33,49,57,3
56,183,313,197,55,30,50,52,3
48,142,313,200,51,30,50,50,3
47,120,412,220,56,29,54,57,3
47,112,421,197,56,29,40,48,3
43,115,407,193,57,29,45,65,3
39,109,378,193,58,30,44,65,3
43,100,408,181,50,28,46,67,3
38,91,305,123,50,29,43,60,3
36,95,311,106,51,29,45,61,3
33,75,304,93,48,27,34,48,3
35,76,316,96,45,27,42,64,3
30,77,324,98,50,28,53,76,3
30,98,351,117,46,27,54,80,3
29,97,348,118,46,26,54,82,3
28,94,366,121,45,24,57,76,3
27,96,378,130,47,25,52,72,3
27,93,340,144,42,25,39,63,3
26,77,316,137,34,25,38,57,3
28,78,361,139,45,27,39,64,3
29,83,357,137,44,29,45,71,3
31,82,378,124,49,28,51,66,3
29,79,371,96,50,26,51,71,3
37,70,371,105,56,28,53,72,3
35,66,333,112,58,27,52,67,3
51,65,312,141,61,25,46,89,3
51,63,241,139,59,25,37,91,3
55,79,374,182,59,26,37,87,3
50,83,361,174,57,25,34,86,3
51,98,393,188,56,27,36,87,3
40,98,401,175,57,27,34,58,3
40,97,421,196,56,28,36,57,3
35,90,307,167,56,28,35,53,3
37,95,299,192,54,29,38,57,3
37,102,236,173,44,29,34,54,3
32,102,268,171,55,32,35,54,3
32,107,241,145,53,31,36,49,3
39,114,298,147,52,31,35,68,3
36,102,290,112,53,29,34,67,3
45,106,294,168,63,28,37,71,3
50,103,295,171,53,25,37,72,3
51,99,290,171,51,26,34,73,3
44,87,237,164,51,25,39,64,3
44,87,277,169,59,27,38,63,3
35,53,325,124,52,30,41,62,3
32,57,309,122,51,30,43,58,3
30,59,320,119,52,29,44,62,3
32,59,318,136,53,30,39,60,3
36,65,286,136,48,30,40,60,3
35,76,273,139,43,27,32,66,3
34,71,251,135,44,30,31,67,3
41,81,291,148,49,29,34,66,3
38,86,285,132,48,29,32,64,3
35,87,316,144,50,30,48,86,2
37,81,307,135,51,28,50,82,2
35,81,325,142,55,27,51,84,2
27,79,341,147,49,30,51,85,2
28,74,338,150,54,28,52,82,2
30,69,333,138,55,28,35,66,2
28,65,322,152,58,29,44,61,2
26,71,322,140,54,30,43,61,2
27,56,271,119,53,27,41,55,2
30,60,306,126,50,28,40,58,2
29,64,334,184,57,26,42,47,2
29,72,336,174,52,27,30,45,2
29,65,323,179,52,24,32,49,2
30,68,312,196,52,25,31,54,2
29,64,307,191,56,27,32,63,2
31,66,331,127,44,27,30,65,2
30,65,317,135,43,24,28,64,2
31,71,319,131,44,24,27,65,2
34,94,328,131,60,27,44,60,2
34,96,376,143,56,23,44,50,2
36,98,318,142,57,23,47,47,2
39,96,335,176,61,26,48,50,2
39,92,341,176,61,27,46,44,2
35,70,354,163,49,24,35,47,2
34,68,299,152,59,26,32,44,2
29,62,293,154,59,26,30,42,2
24,55,286,104,57,24,29,39,2
26,54,271,107,60,24,29,37,2
25,46,243,98,61,26,23,24,2
23,40,210,92,52,24,23,21,2
22,35,190,88,62,24,21,20,2
22,31,144,79,68,25,22,20,2
19,30,125,66,66,26,23,19,2
20,28,90,62,74,28,31,18,2
22,27,66,73,79,31,38,19,2
23,26,57,67,92,34,43,19,2
36,34,38,84,119,40,48,24,2
67,36,39,142,170,42,54,32,2
80,42,46,169,189,47,62,37,2
87,86,55,237,290,59,64,41,2
158,92,60,245,293,59,69,66,2
182,99,63,252,288,57,70,72,2
173,100,62,227,271,54,65,69,2
169,99,55,208,260,50,53,67,2
167,66,44,128,143,34,47,65,2
105,56,38,114,122,32,35,41,2
48,38,29,83,125,32,24,28,2
44,35,31,74,102,30,22,27,2
39,29,32,75,104,31,23,28,2
33,26,31,55,94,28,20,26,2
26,27,27,57,100,30,21,24,2
22,24,28,60,90,28,23,21,2
23,23,25,63,91,32,24,21,2
22,23,29,71,83,30,24,19,2
19,23,30,71,84,30,23,21,2
19,22,32,79,79,28,22,22,2
20,23,32,77,67,29,21,23,2
20,22,31,88,80,27,21,23,2
21,21,26,86,90,29,21,22,2
22,20,30,96,94,31,22,21,2
21,24,26,90,94,31,21,19,2
22,22,26,87,91,29,21,19,2
21,22,24,74,75,30,22,21,2
22,23,25,72,64,28,21,21,2
21,25,26,73,59,30,23,19,2
22,20,27,70,68,30,23,19,2
22,22,31,71,94,32,22,19,2
22,21,32,74,100,31,24,17,2
21,21,31,64,96,30,25,16,2
21,22,26,46,95,26,22,18,2
20,24,26,45,119,29,23,16,2
21,23,25,53,107,25,23,15,2
22,24,23,50,105,27,21,18,2
23,24,27,52,105,30,21,18,2
23,25,39,52,107,31,23,18,2
25,25,39,49,73,28,23,17,2
24,25,37,43,68,28,23,19,2
22,25,41,60,73,27,25,19,2
22,25,39,61,82,23,22,19,2
21,22,27,80,81,24,21,19,2
21,22,28,97,81,25,21,22,2
21,21,30,106,79,25,19,21,2
22,22,24,100,78,26,20,21,2
22,22,27,100,74,29,22,21,2
23,23,28,102,70,27,22,22,2
22,21,27,98,67,28,22,19,2
22,23,25,87,70,29,26,21,2
21,21,25,84,58,27,23,20,2
21,20,23,82,51,25,22,19,2
22,19,24,85,62,28,22,17,2
22,21,23,79,70,28,21,19,2
22,20,25,82,66,26,18,18,2
22,23,27,86,67,27,20,20,2
22,22,28,90,66,26,21,21,2
22,25,26,67,61,26,21,20,2
22,24,28,64,55,26,21,20,2
21,24,28,64,55,27,19,19,2
22,22,26,58,54,25,20,18,2
20,23,27,63,57,26,20,20,2
20,21,28,67,51,26,21,21,2
21,20,28,68,55,25,21,21,2
22,21,27,64,52,24,21,20,2
22,22,31,93,76,25,21,21,2
20,23,29,85,77,24,18,21,2
21,22,28,83,80,24,21,20,2
21,23,28,82,84,25,20,21,2
20,22,29,86,91,26,22,21,2
21,21,24,58,74,27,21,20,2
22,21,26,60,69,25,21,19,2
22,21,27,59,64,23,17,20,2
20,21,26,54,62,22,20,20,2
20,22,27,52,54,23,20,19,2
19,21,30,75,65,22,19,18,2
19,21,28,75,69,26,20,19,2
21,20,26,76,74,27,22,18,2
21,20,29,89,69,28,19,18,2
19,21,28,85,68,27,18,19,2
20,21,25,67,71,29,19,19,2
20,22,26,69,73,27,19,21,2
17,25,26,69,73,26,18,20,2
18,25,25,66,79,24,18,22,2
22,25,22,70,80,23,20,21,2
21,25,23,65,70,21,22,23,2
21,25,24,62,65,21,26,24,2
22,22,25,72,60,22,35,34,2
23,21,25,60,51,23,36,34,2
19,22,28,59,64,24,36,35,2
20,23,29,71,71,23,35,35,2
20,22,31,90,75,24,32,35,2
19,22,29,82,80,24,24,26,2
18,23,29,86,88,25,23,24,2
21,23,30,108,80,24,24,24,2
20,24,29,102,72,26,23,25,2
20,24,28,90,73,24,22,24,2
19,24,32,93,73,26,23,24,2
21,24,33,101,61,23,23,25,2
19,24,29,74,62,27,22,24,2
20,21,30,79,58,26,21,23,2
19,20,26,74,56,27,21,22,2
19,19,22,70,51,26,21,21,2
18,21,25,58,58,29,20,22,2
18,18,25,59,57,26,17,21,2
20,19,27,60,57,25,21,21,2
21,19,28,61,53,27,23,20,2
22,20,29,58,58,25,21,18,2
22,20,25,64,54,24,23,16,2
22,21,27,71,52,24,23,18,2
20,21,25,64,56,27,21,18,2
21,22,26,69,55,26,20,19,2
21,24,25,69,57,27,23,22,2
19,23,26,71,59,28,23,22,2
20,26,23,61,58,26,23,21,2
19,26,22,63,58,26,24,22,2
19,25,20,63,67,25,24,21,2
20,23,22,67,79,26,22,18,2
21,24,20,53,75,25,20,18,2
21,22,21,54,76,26,20,18,2
23,22,24,61,80,25,19,18,2
21,23,24,57,74,24,20,19,2
23,24,25,63,59,23,20,19,2
23,22,27,61,60,26,22,19,2
22,21,28,65,64,27,23,19,2
22,20,25,60,60,28,24,19,2
21,19,26,57,59,27,23,17,2
18,19,26,49,52,26,22,17,2
18,19,23,53,57,24,21,20,2
20,22,25,51,53,23,21,21,2
20,22,25,49,49,23,20,21,2
22,22,25,47,51,24,18,22,2
23,21,23,57,54,25,21,23,2
21,24,24,70,54,24,20,21,2
20,21,21,68,53,24,21,19,2
19,21,24,85,61,23,22,19,2
20,20,24,87,61,22,24,19,2
18,22,27,79,57,23,23,17,2
19,19,26,68,58,24,23,18,2
19,19,29,73,60,22,22,22,2
20,22,28,61,59,23,22,22,2
17,24,28,62,62,24,21,22,2
19,24,29,63,64,24,23,21,2
18,23,28,61,60,25,24,23,2
19,24,27,50,56,26,25,19,2
19,22,26,55,58,26,24,18,2
19,20,29,64,63,27,25,20,2
18,20,28,66,62,27,24,20,2
19,20,28,66,62,24,22,17,2
17,19,28,70,64,26,22,19,2
20,18,27,62,55,26,23,19,2
21,20,25,63,55,26,24,20,2
20,19,27,74,57,27,24,20,2
23,21,26,87,63,29,23,21,2
24,20,26,88,64,27,22,19,2
21,20,29,91,64,26,22,18,2
20,18,27,82,60,24,19,19,2
22,19,25,75,64,24,19,18,2
20,19,28,65,60,24,21,17,2
20,21,27,66,63,25,22,18,2
22,20,25,96,67,28,20,18,2
24,22,26,97,65,27,23,16,2
23,21,26,93,66,27,23,17,2
22,22,23,91,64,27,23,18,2
21,21,24,88,61,26,23,18,2
22,24,23,44,56,24,25,18,2
20,21,22,53,55,25,25,19,2
20,25,24,54,55,26,25,20,2
21,25,24,51,56,24,23,20,2
22,25,24,49,57,27,22,21,2
20,22,23,55,55,26,20,23,2
21,26,23,44,56,28,20,22,2
22,23,22,50,49,26,19,21,2
22,22,22,72,53,28,21,20,2
20,23,23,73,51,25,21,18,2
22,24,23,71,55,27,22,16,2
21,22,21,71,55,23,22,18,2
18,21,22,66,52,22,23,19,2
19,22,20,46,57,21,23,20,2
20,22,19,49,63,25,23,18,2
19,22,22,66,60,24,22,21,2
19,20,24,67,60,26,21,21,2
19,23,22,66,60,26,19,20,2
19,23,25,64,52,27,17,20,2
18,22,25,67,58,27,19,22,2
19,23,23,52,60,27,19,19,2
20,23,23,49,58,27,21,18,2
21,22,27,52,57,26,22,18,2
20,21,24,54,52,25,21,19,2
21,22,26,46,37,23,21,17,2
21,21,25,40,44,21,22,18,2
18,21,26,49,44,23,22,17,2
20,22,22,50,45,23,21,18,2
21,23,27,47,47,24,26,19,2
19,23,28,44,48,26,23,21,2
20,23,28,44,38,25,21,21,2
21,24,28,37,48,25,20,22,2
20,23,29,36,49,26,21,22,2
21,24,26,51,53,27,18,22,2
22,24,26,54,52,27,19,21,2
20,26,27,72,52,27,19,20,2
21,26,26,71,47,26,19,20,2
21,26,28,74,50,27,20,20,2
20,26,27,66,50,28,19,21,2
21,24,28,103,48,26,18,20,2
22,23,31,97,55,25,19,21,2
21,21,31,98,58,24,20,21,2
21,22,30,95,58,24,21,22,2
22,23,31,102,54,22,20,20,2
19,24,29,71,56,24,21,20,2
20,24,26,63,50,25,20,19,2
19,25,29,62,41,26,21,20,2
18,25,29,64,39,28,19,19,2
18,24,29,54,54,27,19,18,2
21,22,28,52,53,25,18,20,2
20,22,30,57,53,25,18,21,2
22,24,29,66,53,24,18,20,2
22,22,27,63,54,21,19,19,2
21,23,28,63,39,23,20,19,2
21,24,28,62,45,25,21,18,2
24,25,30,58,56,27,23,17,2
23,23,29,48,58,28,22,18,2
24,22,32,55,55,29,21,19,2
24,22,34,51,55,28,22,20,2
23,24,34,42,49,27,23,19,2
21,24,29,43,37,28,22,18,2
22,25,29,45,47,29,21,18,2
20,27,26,66,49,27,23,18,2
22,26,24,67,50,26,20,18,2
22,25,25,67,54,28,21,19,2
20,24,27,67,58,27,21,18,2
19,25,27,69,64,27,22,19,2
19,24,30,56,67,28,21,19,2
19,24,28,63,65,28,22,17,2
18,22,28,62,65,29,21,17,2
19,23,26,64,61,25,19,19,2
21,21,26,60,48,25,19,20,2
22,23,24,54,53,24,17,20,2
23,24,23,47,55,24,17,22,2
23,26,22,49,59,22,19,22,2
23,25,23,46,60,22,21,22,2
24,24,21,55,60,20,20,22,2
23,21,20,56,58,20,24,21,2
21,24,22,55,62,23,24,19,2
23,23,22,60,56,22,23,19,2
23,24,21,63,58,25,25,18,2
22,24,23,55,65,27,25,18,2
22,25,24,64,63,28,21,22,2
22,20,22,63,58,26,21,21,2
20,20,22,58,59,26,19,22,2
20,18,22,67,60,23,16,21,2
18,18,21,70,55,23,19,22,2
19,20,22,57,53,21,18,18,2
17,22,23,61,54,22,21,21,1
19,25,23,70,53,23,20,21,1
19,26,25,78,52,22,19,22,1
20,26,25,77,48,22,17,21,1
20,25,24,76,52,24,20,24,1
22,24,24,89,53,23,17,23,1
21,21,25,83,55,24,17,23,1
21,21,24,71,52,26,19,23,1
20,22,25,71,51,27,20,24,1
20,22,25,79,57,26,19,21,1
18,22,28,83,59,26,18,19,1
19,23,26,85,58,25,19,18,1
18,23,26,82,57,25,21,19,1
19,24,26,80,59,24,20,19,1
18,23,27,72,53,25,21,20,1
20,25,23,50,51,24,23,22,1
19,25,25,42,56,26,25,23,1
20,25,25,42,56,26,22,21,1
20,24,23,59,56,24,22,21,1
21,24,26,82,50,24,23,21,1
20,22,26,85,58,25,23,19,1
21,22,24,87,61,23,21,20,1
20,23,24,88,63,24,22,20,1
20,21,27,94,63,26,22,20,1
19,21,26,78,65,24,20,19,1
20,20,27,73,57,25,21,21,1
21,21,34,76,50,25,21,20,1
21,23,35,88,54,24,20,19,1
22,24,32,73,55,24,20,19,1
23,24,33,71,55,27,19,21,1
22,25,34,81,69,27,18,19,1
21,25,58,94,75,27,19,22,1
20,24,73,107,83,26,20,22,1
21,24,78,121,93,27,23,22,1
20,26,87,120,93,26,24,21,1
38,26,90,121,84,25,25,30,1
77,28,82,145,95,26,26,42,1
148,48,80,156,109,34,36,68,1
224,76,92,167,110,37,50,100,1
246,76,94,166,113,42,56,108,1
315,87,113,261,145,44,65,138,1
362,129,145,304,184,56,101,191,1
540,164,193,353,195,65,167,264,1
841,186,224,376,192,88,267,432,1
997,199,229,386,205,105,350,549,1
1074,225,301,473,219,123,402,611,1
1081,220,305,518,196,125,411,610,1
1020,200,275,511,197,124,397,589,1
852,181,254,500,202,112,346,497,1
696,185,251,499,202,105,269,372,1
551,157,145,379,173,92,179,250,1
543,136,97,262,161,84,140,219,1
591,140,97,203,138,78,120,210,1
541,130,80,188,134,74,97,165,1
527,117,70,242,147,110,134,219,1
531,112,67,238,153,105,134,215,1
552,124,69,247,157,111,146,235,1
475,110,67,341,246,125,172,232,1
460,122,71,364,263,135,234,264,1
454,128,62,333,248,102,222,221,1
470,139,62,364,243,102,225,227,1
417,148,63,372,245,96,222,214,1
396,146,65,282,156,84,212,210,1
380,140,51,254,127,69,140,164,1
386,141,59,266,136,66,114,139,1
373,133,57,229,145,62,107,129,1
388,117,49,212,131,58,96,114,1
431,125,47,221,132,49,83,121,1
394,121,43,216,127,45,80,102,1
365,101,30,228,131,40,84,109,1
342,93,37,209,114,39,84,101,1
303,87,42,204,132,38,82,94,1
279,95,40,185,130,35,63,65,1
268,95,43,177,148,35,50,63,1
244,93,43,117,135,37,40,52,1
242,92,41,115,141,36,35,55,1
249,90,38,128,129,54,95,81,1
197,70,41,139,130,114,150,111,1
216,81,41,149,111,125,168,129,1
264,80,43,165,111,125,171,132,1
290,76,41,158,103,128,175,146,1
335,85,40,161,95,133,170,159,1
345,79,34,154,95,88,137,139,1
347,69,35,179,89,72,120,122,1
332,78,35,166,97,71,121,127,1
338,87,38,168,100,71,124,132,1
300,89,40,153,95,45,103,105,1
286,92,41,151,92,47,87,105,1
275,92,40,146,105,51,83,106,1
243,87,41,148,99,58,79,98,1
221,79,38,140,95,51,85,83,1
333,98,44,191,95,66,94,110,1
334,99,44,200,93,64,94,111,1
329,96,43,201,127,70,98,117,1
337,99,40,199,133,73,150,122,1
319,101,42,199,145,80,182,126,1
199,73,33,155,147,77,203,107,1
204,67,36,164,160,83,223,110,1
184,64,33,135,132,83,241,103,1
247,70,45,152,122,77,217,101,1
263,66,44,149,109,72,192,88,1
274,67,51,192,128,67,164,78,1
283,75,50,175,114,60,148,76,1
296,75,52,167,111,50,119,77,1
244,63,44,167,122,47,107,71,1
211,61,42,174,126,52,102,60,1
182,60,35,122,110,46,110,63,1
195,48,35,124,118,45,93,65,1
202,56,33,148,119,53,91,61,1
231,72,37,132,106,50,90,69,1
235,72,38,151,103,46,103,77,1
251,78,40,152,96,63,109,77,1
225,76,40,164,87,66,121,71,1
197,72,44,163,82,60,126,73,1
189,63,39,171,88,68,127,73,1
218,73,40,153,84,75,144,72,1
202,63,35,151,84,62,148,64,1
229,72,39,194,87,65,152,63,1
236,73,33,193,93,64,152,60,1
219,70,38,192,96,58,151,51,1
216,68,36,198,112,82,123,51,1
231,68,35,196,111,82,107,65,1
210,59,31,138,102,80,122,82,1
211,57,31,119,101,81,121,86,1
198,52,31,130,103,80,120,85,1
184,48,32,117,89,46,114,81,1
185,46,37,117,91,46,110,77,1
190,49,36,118,98,43,71,60,1
190,49,38,122,103,41,67,57,1
193,52,34,115,94,40,70,56,1
183,45,33,142,89,37,75,57,1
157,46,32,143,89,37,70,45,1
156,41,32,156,84,33,94,54,1
144,36,30,151,80,34,96,52,1
139,32,27,136,80,36,96,54,1
132,32,28,108,87,35,91,50,1
139,36,27,105,100,43,98,55,1
139,36,28,82,98,45,77,51,1
173,43,31,79,89,43,69,67,1
174,46,34,109,85,43,69,70,1
176,44,35,117,89,43,73,69,1
196,48,36,124,88,49,78,69,1
195,49,39,141,89,46,90,80,1
177,45,34,142,89,50,97,73,1
205,43,34,121,96,50,95,76,1
214,56,39,111,98,52,94,79,1
182,52,35,101,83,40,79,77,1
191,62,35,81,83,45,77,63,1
201,60,38,86,92,41,68,57,1
190,61,35,84,89,39,68,53,1
184,56,30,123,79,36,68,46,1
190,53,32,133,86,33,68,47,1
186,44,33,138,89,28,43,47,1
167,57,33,135,83,30,63,45,1
164,58,33,134,81,38,68,43,1
169,52,32,127,93,38,67,47,1
164,52,31,137,99,40,68,47,1
144,54,29,134,99,38,68,45,1
159,40,30,146,95,45,54,47,1
141,38,33,155,94,42,52,46,1
123,40,35,143,83,41,52,43,1
127,42,33,136,73,40,51,41,1
158,45,33,144,76,43,61,48,1
138,47,32,131,79,33,60,46,1
186,52,32,163,90,33,75,70,1
192,48,28,157,92,33,78,73,1
197,57,34,148,94,32,79,75,1
194,51,39,143,91,32,71,72,1
213,51,38,139,94,31,73,75,1
223,59,42,102,93,35,54,62,1
233,71,44,96,85,41,54,57,1
243,62,42,98,79,42,57,62,1
234,66,36,82,73,40,63,61,1
236,67,37,82,70,42,63,59,1
198,59,32,66,69,40,69,50,1
178,46,31,74,78,35,66,50,1
155,52,31,84,77,35,64,44,1
141,49,31,93,83,34,59,40,1
122,47,32,100,78,32,54,36,1
116,52,30,103,74,27,43,39,1
144,52,31,99,69,34,48,38,1
150,46,28,88,70,34,46,39,1
162,47,30,78,68,34,50,49,1
158,49,26,73,71,36,54,53,1
162,43,29,74,70,36,56,52,1
148,46,28,74,65,30,52,52,1
141,53,29,72,77,31,57,55,1
144,52,29,81,80,33,57,53,1
138,49,29,83,84,34,55,52,1
136,52,27,77,80,34,58,52,1
127,56,31,95,80,38,61,53,1
129,50,30,93,72,37,55,50,1
169,59,30,93,82,37,59,42,1
173,59,31,93,77,35,61,40,1
174,54,30,96,77,37,58,43,1
200,47,26,101,98,33,57,58,1
206,48,29,111,104,35,59,59,1
192,42,31,111,101,41,56,62,1
204,45,32,117,104,43,53,64,1
209,46,34,113,103,40,49,65,1
190,45,35,95,83,40,44,52,1
192,44,34,86,81,40,41,50,1
177,39,31,80,71,33,42,48,1
168,38,30,82,69,38,46,43,1
202,46,29,82,72,42,44,43,1
196,60,26,79,80,42,46,42,1
188,58,25,78,78,43,52,42,1
177,57,29,82,79,41,50,40,1
175,74,35,93,96,46,53,44,1
111,69,35,94,96,46,54,38,1
147,60,36,91,93,46,54,43,1
155,67,36,101,87,44,48,42,1
154,68,32,100,85,43,49,42,1
160,48,25,83,65,30,43,43,1
175,52,23,83,65,28,46,44,1
157,50,24,84,58,34,58,38,1
154,44,23,71,56,34,60,38,1
156,46,27,74,57,39,60,38,1
161,48,29,78,53,37,60,42,1
191,53,37,101,64,44,68,51,1
218,64,38,108,72,40,62,60,1
217,67,39,115,79,40,63,62,1
240,64,38,109,93,41,57,68,1
231,64,37,103,99,42,54,65,1
211,67,32,80,93,36,48,59,1
185,58,29,76,88,36,47,55,1
180,53,29,69,83,36,54,58,1
173,65,29,73,61,34,59,56,1
171,67,28,80,56,34,60,56,1
180,59,26,78,57,30,58,57,1
208,64,30,88,65,42,73,58,1
205,72,33,86,68,50,72,52,1
226,63,29,82,72,47,68,50,1
226,62,32,100,72,48,68,51,1
217,63,35,98,67,48,68,47,1
214,60,34,96,80,46,67,43,1
222,56,32,99,81,41,66,44,1
176,55,35,106,79,42,67,40,1
199,62,36,88,83,44,67,39,1
187,61,33,90,87,44,70,43,1
154,58,31,76,67,37,60,41,1
161,54,32,74,68,42,67,40,1
167,57,32,74,71,42,65,39,1
151,52,31,68,64,42,66,40,1
165,50,32,69,61,41,67,36,1
170,52,35,75,65,39,60,35,1
158,52,33,79,65,35,52,34,1
166,51,31,72,63,34,52,35,1
163,43,31,81,64,32,50,41,1
161,48,30,80,61,32,44,42,1
159,41,27,81,65,34,43,46,1
157,40,27,76,61,28,39,48,1
189,57,31,78,63,38,50,52,1
186,60,29,69,66,36,52,51,1
185,61,33,67,70,37,54,56,1
182,66,33,65,68,37,55,56,1
192,67,32,62,69,42,59,56,1
156,53,31,59,63,37,50,54,1
154,56,30,64,55,37,51,52,1
168,52,29,70,59,37,51,54,1
187,51,28,73,61,36,48,54,1
174,53,33,75,63,40,50,51,1
167,52,33,74,74,38,58,51,1
171,45,34,80,81,40,57,50,1
169,55,34,79,73,39,59,43,1
161,51,33,78,72,37,57,46,1
209,50,31,81,74,39,57,55,1
213,49,33,109,84,42,49,54,1
203,51,33,105,79,41,49,51,1
190,40,32,103,78,42,48,52,1
173,38,33,100,76,43,52,47,1
134,41,34,108,82,36,48,41,1
168,41,29,81,65,31,52,39,1
181,39,29,82,69,33,51,41,1
179,48,29,87,75,32,47,40,1
220,54,29,87,72,30,49,44,1
225,51,26,75,62,33,59,42,1
195,49,27,78,65,33,61,42,1
208,50,27,76,74,32,60,47,1
206,42,26,70,77,35,60,48,1
185,51,28,73,78,34,57,47,1
206,53,28,82,80,38,57,55,1
220,55,31,94,80,40,53,57,1
208,54,31,97,69,40,51,51,1
220,56,30,95,65,39,53,51,1
217,45,30,100,73,41,62,52,1
194,45,30,102,72,37,61,46,1
180,46,28,88,70,33,61,44,1
174,45,26,84,70,32,61,45,2
172,51,29,92,68,33,61,44,2
179,48,29,92,75,31,54,44,2
182,45,27,81,77,35,65,42,2
181,46,29,94,81,36,63,42,2
178,47,30,92,81,36,66,41,2
161,37,28,83,83,36,71,39,2
164,44,28,80,72,40,72,39,2
176,45,30,79,70,34,62,42,2
178,40,28,63,67,35,64,42,2
188,50,29,68,74,35,68,43,2
205,50,28,70,73,39,63,53,2
194,49,28,58,70,36,67,50,2
165,53,30,78,85,40,83,57,2
163,54,31,82,85,40,85,59,2
157,51,31,85,84,40,81,59,2
149,55,30,88,81,40,86,50,2
144,62,31,92,81,40,85,52,2
150,59,30,95,63,32,60,39,2
152,59,31,103,65,34,60,40,2
204,75,31,100,57,41,66,50,2
201,75,33,99,60,39,59,53,2
209,69,32,98,67,38,49,54,2
202,67,30,82,66,39,48,54,2
199,66,28,67,65,39,45,50,2
143,50,28,66,68,39,43,41,2
129,44,26,60,66,53,48,36,2
103,40,24,56,58,59,49,34,2
99,39,24,52,58,61,51,35,2
95,39,26,48,51,61,46,35,2
76,24,22,43,46,68,38,34,2
70,24,24,44,45,61,38,48,2
58,24,26,41,41,63,38,47,2
42,26,53,71,39,65,41,52,2
41,57,228,128,39,108,50,59,2
47,62,259,183,41,105,78,77,2
46,85,391,234,55,107,84,94,2
61,112,559,293,61,107,108,188,2
72,137,596,308,65,108,122,267,2
82,152,813,376,80,69,125,273,2
98,203,891,460,97,70,141,287,2
100,222,904,492,102,66,156,285,2
93,218,896,477,100,60,143,236,2
84,205,880,473,97,57,135,152,2
76,200,745,423,85,51,131,142,2
53,170,700,310,66,42,98,104,2
45,136,639,232,45,38,63,90,2
40,127,526,196,45,33,55,82,2
40,125,521,175,53,28,39,56,2
36,108,387,140,78,29,33,47,2
26,65,266,129,78,28,23,32,2
25,58,222,104,80,29,20,30,2
25,52,233,105,79,29,19,27,2
23,49,218,124,107,32,18,26,2
23,37,221,135,93,31,20,24,2
21,37,226,139,93,29,20,21,2
21,38,229,131,92,28,21,20,2
21,41,238,151,92,27,22,21,2
24,42,231,143,60,24,21,20,2
23,41,211,128,69,26,22,21,2
24,40,206,126,70,26,23,21,2
23,37,198,131,70,25,23,20,2
26,30,153,128,69,25,24,21,2
26,38,260,139,97,29,24,21,2
27,43,266,170,96,27,23,20,2
28,44,262,167,95,29,22,22,2
29,43,258,159,97,28,22,25,2
25,46,267,139,99,29,21,24,2
24,41,291,134,67,24,21,25,2
24,37,280,110,63,24,21,24,2
21,34,286,112,66,25,22,23,2
23,37,290,116,68,24,20,20,2
23,36,275,116,68,26,22,20,2
21,32,137,94,69,27,23,18,2
22,32,134,102,62,26,25,21,2
23,32,146,106,71,27,24,20,2
22,29,139,108,73,30,25,20,2
21,26,129,106,72,28,25,19,2
21,28,119,105,70,30,24,18,2
21,27,117,114,68,30,22,17,2
21,27,76,117,57,28,23,19,2
19,27,73,132,53,26,21,18,2
22,28,88,142,55,26,25,21,2
22,24,99,160,61,22,25,22,2
22,29,101,151,71,26,26,27,2
24,27,114,143,68,26,26,35,2
23,30,125,132,67,26,27,36,2
22,30,119,139,70,26,23,40,2
25,29,111,132,72,28,24,41,2
24,28,109,120,62,25,22,40,2
22,31,110,132,64,26,24,34,2
23,26,92,127,66,26,25,35,2
22,28,85,111,64,25,25,31,2
18,29,118,98,54,24,25,33,2
18,27,113,105,61,27,27,30,2
21,24,102,90,59,25,24,27,2
21,25,108,110,50,25,24,25,2
21,24,110,114,56,27,24,24,2
21,25,81,115,57,26,21,19,2
23,26,108,124,55,24,21,21,2
22,27,112,122,56,23,22,22,2
22,27,105,103,60,24,20,23,2
20,27,105,140,60,23,22,23,2
21,25,100,151,62,22,21,25,2
21,22,70,133,59,23,21,23,2
20,19,58,137,58,22,20,22,2
21,22,58,138,64,20,20,25,2
22,23,53,110,61,21,21,24,2
22,22,56,117,57,23,21,24,2
22,24,69,116,60,21,21,24,2
23,25,107,144,66,23,22,25,2
22,24,107,144,58,26,22,21,2
21,24,108,135,67,25,21,21,2
23,26,106,119,76,25,21,22,2
21,25,104,140,83,26,21,24,2
22,26,72,107,83,29,19,21,2
23,27,64,112,83,28,20,22,2
23,29,104,124,78,31,20,21,2
20,31,114,140,72,28,22,21,2
22,31,110,124,64,29,24,21,2
21,31,111,139,65,27,25,22,2
20,30,114,135,73,27,26,21,2
22,30,82,123,75,26,25,23,2
23,29,66,108,76,26,24,21,2
23,30,70,123,72,24,21,23,2
24,30,63,111,74,25,22,24,2
24,30,83,123,70,25,21,24,2
23,28,85,119,73,25,20,24,2
23,27,92,110,75,26,21,24,2
21,25,92,95,77,28,22,23,2
21,23,96,111,71,25,21,22,2
19,23,81,100,84,27,21,21,2
20,21,77,115,79,26,24,22,2
20,23,92,118,76,25,23,22,2
22,25,89,111,76,26,22,20,2
22,26,83,89,74,27,23,21,2
23,27,82,86,48,26,24,23,2
22,28,82,73,76,28,22,21,2
22,27,75,71,80,30,23,22,2
21,27,82,84,82,29,24,25,2
22,27,83,94,84,29,24,24,2
23,25,89,94,85,27,23,22,2
23,25,92,103,70,24,23,21,2
22,26,83,106,66,21,23,20,2
23,26,86,98,64,22,21,16,2
22,25,85,89,62,22,23,19,2
21,26,75,86,62,22,21,21,2
25,28,77,90,52,23,21,22,2
27,27,69,110,49,22,20,24,2
25,26,57,108,51,21,20,24,2
25,26,61,113,52,21,18,22,2
24,23,61,111,52,23,19,21,2
23,21,53,120,47,24,20,21,2
22,21,57,119,53,24,22,20,2
23,22,55,129,53,24,23,21,2
22,22,51,125,55,24,24,22,2
25,23,53,125,53,26,25,23,2
23,23,51,110,51,25,24,23,2
23,23,54,111,68,28,22,23,2
21,24,55,105,68,30,25,23,2
23,23,56,108,66,30,26,23,2
19,24,58,112,69,28,25,26,2
18,24,55,108,68,28,25,25,2
20,24,58,92,49,25,26,23,2
23,21,67,106,57,25,22,23,2
22,21,67,103,58,24,20,24,2
22,21,64,96,57,25,18,19,2
23,20,78,100,57,24,19,20,2
22,18,75,99,58,27,20,21,2
22,22,76,92,59,25,19,21,2
23,23,77,109,56,24,19,21,2
21,24,78,119,58,25,22,21,2
22,25,67,119,61,27,22,20,2
23,28,65,110,55,24,21,20,2
23,28,56,111,48,25,21,21,2
24,29,56,96,60,27,23,18,2
24,27,53,87,58,25,20,17,2
23,26,51,77,56,23,21,20,2
24,24,45,79,54,24,20,22,2
22,22,52,78,64,23,21,20,2
21,21,53,83,57,23,20,21,2
21,24,60,107,61,26,22,22,2
24,26,64,115,66,26,21,22,2
22,28,68,133,67,25,21,20,2
22,27,58,122,64,24,21,20,2
21,28,63,133,64,23,21,21,2
22,26,57,114,77,23,20,21,2
22,26,51,116,79,27,20,19,2
21,24,51,104,91,29,20,18,2
22,25,53,114,87,30,19,20,2
25,22,47,142,95,30,19,18,2
25,23,49,143,83,28,19,19,2
23,22,54,140,79,28,19,20,2
23,20,54,132,70,25,20,20,2
22,25,56,126,71,24,21,20,2
20,26,52,96,60,24,21,22,2
19,25,52,97,60,23,19,22,2
19,24,54,88,60,19,20,22,2
19,25,67,115,62,20,20,24,2
19,21,64,113,58,19,20,23,2
18,21,67,104,58,19,20,22,2
18,21,66,118,55,19,21,20,2
18,21,69,128,57,19,20,19,2
21,19,58,107,54,19,20,17,2
22,20,60,111,57,23,20,18,2
22,22,59,116,56,23,20,20,2
22,23,69,99,59,24,20,22,2
23,25,65,85,58,26,23,23,2
21,26,58,83,61,25,21,22,2
20,25,72,105,59,26,22,23,2
24,24,73,97,57,27,23,23,2
23,27,67,102,67,26,22,22,2
23,25,65,102,65,25,20,22,2
23,24,72,106,56,26,21,24,2
22,28,58,82,54,21,20,22,2
19,28,58,75,57,21,20,22,2
20,27,59,94,58,24,20,21,2
19,26,59,94,58,24,20,21,2
20,26,52,95,59,24,19,18,2
20,23,53,95,60,28,18,19,2
22,22,48,94,64,27,17,19,2
21,21,39,91,63,24,18,20,2
23,22,47,108,67,28,20,19,2
21,24,48,103,65,26,19,19,2
22,23,43,97,65,23,20,19,2
20,23,52,102,59,23,19,21,2
20,25,54,91,55,23,19,23,2
21,24,57,85,53,20,19,23,2
23,23,57,86,58,22,19,24,2
23,26,63,102,57,21,19,24,2
24,27,71,112,58,22,19,22,2
26,27,80,120,63,23,19,20,2
24,28,76,113,59,23,18,20,2
22,28,76,113,55,23,21,18,2
22,28,74,98,55,23,21,18,2
22,27,60,97,53,23,21,20,2
20,26,46,94,52,25,22,19,2
22,26,49,92,55,24,22,19,2
24,24,49,97,54,22,22,18,2
23,24,49,97,60,21,24,18,2
21,24,52,84,67,22,23,16,2
23,25,65,97,58,19,23,18,2
22,25,62,105,55,19,24,17,2
21,28,60,104,59,20,21,18,2
22,26,57,119,53,21,18,18,2
24,27,53,115,48,21,19,17,2
22,25,38,100,46,21,19,17,2
22,25,39,103,47,20,18,21,2
24,27,43,101,40,20,18,20,2
23,28,43,82,44,22,22,21,2
21,29,48,98,45,22,22,22,2
21,30,48,94,47,23,23,22,2
21,30,46,75,46,26,23,20,2
21,26,47,84,53,27,24,21,2
23,26,59,105,51,27,21,22,2
22,22,55,93,55,27,20,23,2
23,23,59,105,56,27,20,22,2
22,22,61,108,59,24,19,22,2
21,23,58,103,54,23,17,23,2
19,20,50,84,53,22,19,21,2
21,22,54,88,51,22,18,20,2
21,23,47,80,49,23,19,22,2
20,24,46,95,47,22,19,21,2
19,24,46,92,49,23,21,20,2
20,24,44,91,46,21,20,22,2
18,25,41,82,49,22,22,22,2
19,22,52,93,58,21,18,21,2
19,23,53,80,61,24,20,21,2
19,24,56,82,59,24,19,21,2
20,28,59,104,63,25,19,21,2
20,26,59,110,62,26,19,20,2
19,25,52,92,71,27,20,21,2
20,25,52,94,74,26,20,20,2
21,25,63,136,77,28,20,21,2
21,23,58,124,74,27,20,20,2
20,24,58,120,71,26,19,21,2
22,24,55,122,70,26,19,22,2
22,25,65,135,67,25,19,22,2
22,24,62,101,65,22,17,22,2
22,24,65,109,70,23,21,21,2
24,25,66,110,71,24,21,20,2
26,27,66,118,64,22,21,20,2
25,25,58,99,61,21,23,20,2
25,27,51,99,62,24,24,19,2
24,25,49,89,57,24,22,21,2
24,24,52,96,53,25,22,22,2
25,22,50,90,39,24,20,20,2
25,23,47,90,53,23,23,20,2
24,24,43,80,56,23,24,21,2
23,22,49,99,60,23,23,20,2
21,24,55,96,61,25,23,21,3
16,25,59,89,63,26,24,22,3
17,24,60,85,53,27,20,22,3
18,23,59,100,68,30,21,21,3
19,26,57,83,69,31,22,21,3
20,24,49,76,69,29,24,19,3
21,24,50,80,67,29,24,19,3
19,24,47,97,67,29,23,19,3
20,25,49,90,50,25,23,20,3
22,23,44,87,47,23,23,20,3
23,24,45,99,45,21,21,19,3
22,23,42,100,47,21,22,22,3
22,25,53,87,47,21,22,21,3
24,24,59,105,55,20,20,20,3
22,30,112,110,53,20,20,20,3
21,28,110,99,52,22,19,21,3
22,35,140,113,52,22,18,17,3
25,42,189,150,53,21,22,40,3
25,47,272,148,39,22,38,43,3
27,59,270,158,38,24,40,48,3
37,72,331,179,38,25,81,90,3
60,90,373,249,53,32,97,121,3
69,104,471,266,55,35,104,123,3
79,168,687,402,64,36,140,202,3
102,233,784,418,74,37,151,245,3
115,293,788,475,92,43,145,259,3
116,343,809,495,101,45,141,288,3
112,348,770,491,99,43,137,292,3
114,332,694,409,96,43,106,260,3
100,311,694,407,90,43,100,223,3
88,275,717,348,77,37,90,245,3
87,256,682,288,55,32,106,241,3
97,262,740,272,55,34,114,251,3
88,269,642,241,60,41,123,257,3
84,244,615,233,59,40,118,261,3
82,233,652,246,57,41,119,226,3
69,185,665,246,56,40,108,197,3
64,167,621,274,59,47,100,223,3
63,148,666,285,54,46,89,207,3
82,212,612,278,57,50,95,221,3
80,207,543,279,54,48,89,217,3
80,199,535,268,53,48,83,204,3
87,203,565,250,52,43,95,154,3
88,197,514,242,46,43,113,145,3
72,135,490,255,44,45,115,118,3
71,128,479,235,40,46,122,142,3
73,138,508,222,47,48,132,167,3
54,125,492,207,46,46,124,166,3
58,121,531,251,48,42,110,178,3
55,125,571,245,58,35,120,194,3
54,118,626,254,59,33,120,166,3
49,105,606,266,56,31,107,137,3
50,120,606,281,58,29,107,134,3
37,120,587,246,56,29,98,128,3
44,106,553,239,45,29,101,142,3
44,104,473,247,44,27,94,145,3
46,105,490,271,43,27,92,146,3
45,93,440,252,38,30,93,145,3
48,111,446,269,49,34,112,139,3
38,114,469,272,49,32,96,94,3
41,127,484,273,54,33,102,102,3
39,131,519,241,55,33,116,103,3
38,132,537,238,54,30,122,113,3
39,125,526,204,46,25,113,107,3
38,121,527,185,42,27,106,108,3
36,115,515,170,37,25,106,96,3
36,105,447,183,38,24,91,106,3
41,99,421,193,57,30,99,119,3
50,99,374,212,58,31,91,116,3
52,118,341,258,60,30,93,109,3
52,118,343,241,63,31,98,115,3
52,118,356,224,59,31,99,99,3
48,114,328,213,47,26,79,78,3
39,109,374,243,50,26,84,86,3
46,149,375,196,47,26,86,100,3
44,143,395,184,50,26,78,101,3
46,147,376,193,56,26,80,109,3
47,150,393,202,57,28,89,113,3
48,161,391,147,53,26,83,107,3
41,106,375,166,54,26,90,122,3
43,119,395,237,51,25,90,114,3
51,122,425,245,45,23,100,116,3
56,130,427,239,38,24,98,110,3
55,118,523,239,42,25,104,111,3
54,117,546,241,40,25,100,118,3
54,107,509,182,38,26,95,124,3
46,103,517,175,42,29,89,129,3
40,88,516,179,53,28,83,126,3
41,82,447,221,60,31,78,128,3
43,87,446,228,63,31,75,109,3
58,87,465,280,64,33,85,139,3
