Channel 0,Channel 1,Channel 2,Channel 3,Channel 4,Channel 5,Channel 6,Channel 7,actionCategry
33,100,83,304,144,40,29,45,0
35,100,114,309,137,44,27,26,0
36,87,268,342,136,45,30,28,0
34,75,289,354,123,41,29,26,0
33,74,287,313,115,41,28,26,0
34,67,292,256,88,38,28,25,0
32,62,282,260,82,36,30,27,0
26,41,150,213,71,34,28,24,0
24,39,116,220,71,33,32,25,0
24,38,109,205,61,30,31,25,0
23,37,103,170,56,36,33,27,0
24,34,112,180,78,51,34,25,0
24,36,122,187,76,60,39,30,0
23,30,113,157,80,63,38,30,0
23,29,139,161,82,80,40,31,0
22,32,139,193,92,107,56,33,0
21,31,153,162,92,123,58,35,0
26,29,139,152,90,152,62,37,0
45,29,160,161,86,157,62,41,0
45,30,163,160,85,154,61,40,1
48,37,212,197,144,217,104,46,1
49,38,201,201,154,226,110,47,1
48,38,206,207,156,206,108,43,1
30,37,190,204,164,207,111,39,1
29,36,177,220,165,206,111,40,1
28,36,132,185,144,119,64,33,1
45,51,164,292,214,80,50,32,1
49,68,282,321,227,78,47,31,1
50,70,308,384,257,65,39,30,1
55,141,336,386,284,66,39,30,1
56,146,337,397,281,61,36,29,1
46,148,342,333,235,56,34,27,1
42,147,306,316,240,55,33,26,1
43,152,281,238,203,52,32,28,1
59,96,243,219,162,40,30,27,1
57,89,238,198,145,39,26,25,1
56,88,222,186,124,34,23,24,1
55,79,143,170,92,37,27,26,1
53,68,143,161,89,39,30,25,1
31,59,138,167,134,47,32,25,1
28,53,116,134,132,48,33,25,1
27,38,92,131,137,148,62,36,1
26,35,78,158,148,173,68,35,1
25,35,84,168,153,183,69,34,1
22,38,90,166,120,185,70,34,1
27,45,94,167,116,206,81,40,1
26,49,109,174,100,157,65,32,1
30,52,127,145,69,131,58,31,1
32,55,185,133,62,118,57,31,1
35,61,211,141,52,114,57,39,1
33,57,210,134,49,69,40,35,1
34,53,222,122,46,90,45,46,1
34,50,215,123,55,100,54,53,1
32,45,174,119,57,104,59,60,1
28,35,145,100,60,106,61,56,1
26,36,170,115,59,106,60,56,1
28,41,213,138,61,78,54,49,1
25,45,240,157,97,60,43,39,1
26,47,244,166,105,49,35,31,1
33,65,283,181,106,49,32,34,1
34,68,276,176,105,44,31,31,1
31,65,228,147,103,41,30,30,1
31,62,203,149,66,38,30,30,1
30,60,191,135,47,36,26,28,1
23,41,116,122,42,26,22,24,1
23,36,103,155,61,27,23,26,1
127,63,104,281,74,31,58,97,1
151,67,86,272,80,35,64,101,1
154,69,92,279,78,33,64,103,1
183,72,202,303,89,32,74,120,1
324,148,239,375,195,64,159,234,1
370,178,257,311,212,71,177,275,1
376,184,281,310,212,77,183,289,1
393,187,282,307,215,79,184,296,1
387,187,218,281,214,80,184,294,1
293,138,176,155,134,58,123,225,1
219,92,146,149,150,65,124,185,1
198,83,107,156,169,60,122,167,1
162,74,115,150,227,67,123,157,1
165,73,119,157,239,68,120,157,1
179,103,120,150,238,72,118,150,1
157,106,112,135,215,59,74,98,1
231,110,104,160,227,57,58,110,1
290,122,86,163,166,50,60,123,1
306,125,76,167,150,52,70,133,1
424,112,84,222,154,48,70,158,1
506,112,83,277,184,55,80,184,1
483,111,73,276,155,51,81,171,1
511,118,78,287,164,51,76,168,1
519,153,80,292,161,48,66,161,1
427,149,61,252,152,47,60,131,1
352,151,62,190,108,39,45,100,1
351,149,59,163,112,41,46,107,1
294,139,46,156,113,39,46,101,1
261,99,39,148,112,36,46,89,1
245,89,39,157,109,38,45,83,1
235,90,36,158,105,39,56,89,1
234,91,36,164,89,36,56,86,1
191,95,38,182,92,40,55,82,1
188,99,38,189,95,40,52,82,1
216,109,40,181,98,38,54,89,1
240,121,38,179,104,34,39,82,1
247,128,44,178,114,34,32,79,1
263,133,45,156,102,30,35,79,1
390,149,79,203,118,33,45,123,1
410,153,85,204,120,37,47,125,1
413,173,91,220,115,40,52,126,1
427,167,90,220,103,40,52,126,1
434,160,87,222,105,40,54,125,1
349,151,62,187,90,40,52,90,1
312,146,58,216,109,41,53,85,1
283,101,44,195,116,42,49,75,1
281,125,47,191,121,44,51,78,1
331,135,50,181,120,45,49,84,1
318,129,46,164,122,43,42,75,1
329,132,44,138,98,39,38,74,1
359,139,53,171,93,40,41,77,1
364,129,61,188,116,41,39,67,1
311,146,70,198,118,42,38,57,1
296,141,69,198,108,40,38,55,1
305,187,74,191,127,48,43,70,1
270,191,68,181,125,43,36,66,1
248,191,60,172,99,39,35,72,1
290,189,53,164,96,37,40,92,1
287,189,53,160,96,38,40,91,1
302,140,43,181,75,29,34,83,1
298,126,47,159,78,30,35,82,1
276,118,42,148,81,29,35,77,1
262,83,37,152,93,29,26,65,1
282,98,37,150,104,31,28,75,1
239,106,43,123,108,31,28,68,1
264,109,47,122,106,29,28,72,1
297,114,51,130,142,37,32,84,1
254,113,50,167,142,39,33,78,1
290,143,57,171,136,39,37,96,1
296,145,55,182,131,39,39,99,1
281,140,50,181,135,40,40,102,1
259,135,49,178,108,36,37,98,1
262,137,48,149,93,33,37,96,1
210,94,42,162,105,32,35,71,1
214,78,39,154,105,33,32,66,1
201,92,39,153,106,32,31,57,1
188,99,37,152,97,31,31,49,1
197,97,39,139,98,33,31,49,1
208,95,39,118,88,32,29,52,1
262,133,52,119,84,32,30,87,1
270,136,55,139,76,33,29,89,1
295,136,54,131,77,29,28,91,1
281,135,55,139,77,29,28,89,1
306,136,60,154,113,31,35,117,1
250,97,53,145,117,31,35,99,1
235,87,53,167,130,34,37,103,1
205,82,53,174,129,35,37,105,1
208,91,56,172,129,34,42,115,1
221,102,52,160,93,34,38,91,1
229,105,52,159,92,35,37,85,1
280,119,52,129,79,33,41,99,1
334,126,53,119,74,36,44,107,1
350,127,47,113,74,35,39,101,1
361,123,50,133,80,34,37,104,1
365,124,46,132,78,34,37,103,1
328,110,40,114,81,31,28,83,1
314,107,39,137,89,28,24,76,1
305,105,40,139,89,29,28,76,1
248,96,34,126,97,28,26,65,1
258,101,37,132,95,26,27,72,1
278,98,35,157,87,26,28,81,1
240,104,39,145,79,28,29,75,1
249,96,36,152,79,30,26,69,1
257,105,40,147,83,32,29,74,1
243,100,39,150,82,31,29,72,1
233,104,39,132,84,33,30,71,1
222,93,37,133,84,30,26,67,1
222,92,38,126,94,31,29,72,1
200,84,33,131,90,27,27,65,1
194,81,33,122,93,27,27,64,1
180,79,39,117,94,27,26,59,1
203,90,40,111,100,30,28,64,1
192,91,41,115,86,28,25,64,1
200,100,45,119,81,33,26,63,1
341,126,60,124,77,36,30,89,1
353,145,61,119,75,35,32,93,1
383,144,63,117,71,34,33,98,1
387,143,63,103,70,35,34,100,1
389,136,61,97,61,32,34,104,1
301,106,44,106,73,31,28,82,1
281,77,50,121,91,30,26,79,1
229,65,46,127,99,32,25,74,1
228,73,44,130,99,30,24,67,1
223,75,48,128,109,32,26,63,1
230,76,48,113,103,32,25,72,1
240,71,38,96,85,32,27,67,1
255,64,35,90,75,30,25,64,1
267,78,42,90,80,31,27,66,1
291,81,39,89,65,27,27,75,1
282,86,40,89,64,24,27,65,1
287,88,42,101,65,27,26,68,1
275,92,46,102,60,26,28,66,1
259,80,41,107,86,27,27,71,1
230,74,38,106,87,29,26,59,1
248,84,42,105,99,33,26,60,1
252,90,43,95,104,33,24,56,1
341,130,51,97,107,35,33,99,1
346,136,53,88,86,33,31,94,1
415,143,57,104,84,31,36,108,1
384,134,54,115,71,29,35,107,1
403,140,58,124,66,29,38,110,1
321,99,48,125,66,26,29,71,1
314,85,47,146,65,26,31,69,1
216,76,42,144,63,26,23,44,1
210,72,41,134,62,25,25,40,1
144,56,36,126,67,23,22,34,1
182,61,40,126,73,22,23,39,1
188,64,40,107,76,22,24,44,1
189,69,41,128,94,24,27,49,1
192,72,42,134,92,25,27,49,1
215,69,40,130,87,27,27,51,1
205,83,39,127,84,29,28,55,1
193,80,37,128,80,29,25,50,1
191,80,38,132,70,30,23,51,1
220,85,40,138,71,31,22,53,1
193,88,40,146,70,29,24,50,1
171,83,39,151,60,27,25,45,1
171,84,41,159,61,31,25,48,1
177,77,38,137,49,27,26,50,1
149,72,34,134,48,28,27,49,1
150,63,35,126,43,27,24,50,1
148,56,32,117,51,29,23,47,1
190,60,29,109,57,26,24,45,1
175,63,30,95,59,29,23,40,1
201,65,37,93,57,28,27,72,1
202,66,40,101,59,28,28,72,1
208,70,47,121,58,25,31,75,1
199,83,46,118,63,27,31,81,1
203,82,48,126,61,24,32,81,1
168,81,49,133,61,26,29,56,1
198,92,50,138,70,30,31,68,1
202,84,44,116,70,30,28,69,1
209,82,53,113,64,29,28,72,1
221,83,52,109,66,31,26,71,1
234,79,47,92,70,29,28,71,1
211,68,44,93,69,26,26,57,1
209,69,44,95,65,26,26,58,1
218,64,35,94,67,31,29,60,1
210,63,35,90,81,31,30,59,1
215,71,35,86,80,31,28,66,1
231,75,36,72,75,32,30,74,1
265,84,37,84,78,32,29,76,1
232,81,36,99,77,27,25,68,1
241,92,34,98,60,27,25,70,1
235,87,33,102,59,27,24,64,1
235,79,31,104,80,27,25,73,1
223,76,32,94,83,28,27,72,1
242,83,35,73,82,28,28,72,1
277,77,40,96,83,25,28,82,1
266,81,42,91,84,25,27,81,1
250,96,40,102,65,25,28,66,1
219,92,39,104,55,23,26,60,1
326,129,45,115,73,27,30,78,1
291,129,39,91,70,26,32,66,1
395,133,49,127,91,30,38,87,1
403,123,50,112,91,27,36,87,1
426,137,54,119,103,29,36,104,1
343,116,49,112,98,31,33,95,1
343,114,49,116,97,32,29,97,1
229,108,38,82,84,30,24,79,1
245,110,37,95,86,30,24,80,1
206,96,34,92,74,31,23,59,1
192,63,30,96,63,25,22,45,1
201,63,30,98,74,28,23,40,1
182,63,37,112,70,30,24,38,1
143,54,36,106,64,29,24,34,1
160,51,35,103,64,28,25,41,1
165,52,38,120,65,28,24,42,1
150,43,39,114,55,25,24,43,1
186,48,37,124,52,24,21,45,1
185,52,37,132,52,26,19,42,1
192,54,36,134,59,24,20,46,1
193,55,34,119,58,23,23,49,1
190,55,36,146,55,26,20,50,1
179,64,30,126,54,24,21,51,1
181,64,29,115,60,24,22,54,1
162,67,30,116,50,27,22,48,1
169,66,32,113,66,27,23,53,1
178,69,30,93,74,25,23,53,1
162,60,31,106,77,26,23,52,1
156,60,34,116,71,24,23,50,1
153,56,34,111,73,23,22,45,1
149,61,34,125,75,29,21,38,1
146,60,34,120,72,28,23,36,1
142,59,32,109,77,29,23,33,1
136,66,30,110,79,30,24,31,1
139,65,31,114,81,29,24,32,1
151,61,29,94,65,23,23,31,1
160,65,29,98,67,26,23,45,1
204,66,30,99,62,26,23,55,1
230,67,30,100,65,26,22,57,1
220,76,29,96,64,25,23,58,1
212,73,31,107,69,28,22,62,1
213,73,29,102,63,24,22,53,1
250,96,40,113,58,22,23,58,1
237,91,39,100,56,24,22,61,1
245,83,41,114,51,25,22,61,2
248,93,42,109,66,24,26,61,2
234,91,42,107,66,25,26,60,2
163,65,34,103,71,29,27,49,2
185,70,36,117,73,27,27,50,2
187,71,34,105,75,29,27,51,2
192,60,33,117,64,31,26,45,2
194,58,33,132,63,31,27,47,2
179,56,30,123,61,26,25,45,2
143,45,29,128,61,31,25,38,2
129,47,31,128,61,30,25,36,2
98,43,30,115,57,26,21,39,2
127,45,30,101,57,27,20,40,2
128,54,31,105,59,27,20,40,2
126,59,34,88,58,23,20,39,2
128,58,32,95,60,22,20,40,2
131,59,33,97,56,22,21,37,2
96,52,32,91,57,21,20,32,2
83,44,31,81,51,23,20,32,2
79,36,28,99,52,22,20,35,2
71,29,30,103,50,23,20,35,2
54,27,31,114,58,25,22,38,2
44,29,30,110,57,26,24,40,2
40,30,30,112,55,24,25,37,2
36,31,31,90,49,26,29,35,2
36,34,56,118,47,72,48,35,2
35,44,137,209,45,184,99,78,2
52,76,338,249,55,202,148,138,2
79,120,435,264,68,207,165,213,2
86,187,687,349,99,420,488,225,2
96,234,825,440,115,441,511,269,2
97,248,910,478,120,412,521,289,2
89,244,939,469,116,412,520,271,2
82,243,924,507,119,420,530,239,2
76,210,795,458,96,217,294,234,2
64,159,686,364,75,161,259,206,2
60,136,599,264,66,148,224,162,2
60,136,551,259,65,124,201,155,2
41,112,527,165,46,83,159,119,2
38,86,476,156,42,53,98,105,2
35,80,432,154,42,54,73,40,2
35,76,376,160,43,56,70,37,2
36,62,254,217,41,54,62,31,2
29,43,221,217,41,53,55,25,2
29,39,275,233,51,49,50,25,2
29,41,285,232,57,42,40,23,2
26,40,274,230,54,33,39,24,2
24,42,259,164,53,26,40,22,2
24,44,273,154,50,24,39,24,2
20,38,208,121,41,21,38,23,2
23,41,247,126,36,21,36,22,2
26,42,260,102,36,37,41,20,2
25,39,245,99,35,40,40,22,2
24,36,224,93,32,40,40,22,2
28,53,264,131,33,42,39,24,2
28,59,241,157,32,42,40,25,2
26,61,243,158,34,29,26,26,2
27,61,270,157,36,27,23,22,2
27,64,268,155,37,26,23,22,2
24,51,229,133,34,24,23,22,2
25,40,238,124,33,24,23,25,2
25,36,232,125,30,23,22,25,2
24,36,222,142,31,22,19,26,2
26,36,260,171,33,21,20,29,2
29,41,258,162,38,23,19,28,2
27,46,258,135,40,22,21,24,2
27,45,266,149,42,22,20,24,2
29,47,260,130,40,22,20,24,2
27,47,247,92,39,23,21,21,2
25,43,244,93,36,22,20,22,2
25,38,196,109,29,22,18,23,2
27,39,189,104,31,20,19,24,2
24,37,169,106,30,22,19,24,2
25,37,161,125,28,22,19,25,2
23,39,168,168,33,23,21,23,2
23,41,170,166,37,22,22,22,2
22,42,178,168,32,22,21,23,2
25,47,207,171,35,25,22,21,2
27,49,187,157,38,24,20,20,2
30,52,235,149,38,24,21,27,2
30,49,248,143,37,24,22,29,2
35,62,268,179,48,26,24,29,2
33,58,261,185,47,22,23,30,2
33,53,270,192,47,25,25,33,2
31,51,235,172,42,23,24,28,2
30,53,230,189,43,23,23,27,2
24,35,184,141,32,22,21,25,2
25,34,171,131,31,20,22,26,2
24,41,174,136,30,21,21,25,2
25,40,179,156,34,33,23,25,2
26,37,167,132,30,42,24,26,2
26,39,181,132,30,49,26,25,2
28,44,179,141,31,53,25,27,2
25,40,220,129,29,52,25,24,2
25,38,224,104,31,46,22,24,2
25,37,218,105,30,38,22,22,2
24,36,210,107,29,29,21,23,2
20,30,204,114,27,22,21,19,2
21,27,163,121,27,22,21,19,2
22,29,183,117,22,21,20,21,2
23,30,216,118,24,20,19,21,2
22,28,220,126,27,21,19,24,2
22,28,222,110,28,22,18,23,2
24,31,212,104,30,23,17,25,2
22,29,183,102,28,22,19,23,2
23,30,161,101,29,22,20,24,2
25,30,152,90,26,20,20,24,2
27,32,147,94,26,20,21,24,2
24,28,165,107,27,21,21,22,2
27,30,179,111,26,20,21,23,2
25,30,210,140,28,21,23,22,2
24,32,217,146,28,21,22,21,2
24,30,219,149,28,21,22,21,2
27,31,198,154,28,21,24,21,2
26,31,201,159,33,22,25,22,2
25,31,161,133,31,21,24,21,2
26,34,157,137,32,23,26,21,2
25,34,193,136,32,22,25,23,2
24,33,194,135,31,23,25,21,2
22,35,162,157,28,22,24,21,2
22,35,215,159,28,24,24,21,2
23,43,240,165,28,22,23,20,2
23,43,223,158,27,22,22,19,2
24,47,222,143,27,23,20,20,2
25,44,228,143,28,24,20,18,2
27,44,228,174,29,23,19,22,2
25,33,202,164,30,23,19,22,2
24,33,218,166,30,24,19,25,2
25,30,216,175,30,20,20,24,2
26,31,222,150,27,20,20,25,2
23,36,248,145,28,21,20,22,2
28,39,249,150,33,21,22,24,2
29,38,222,148,35,20,22,21,2
26,36,224,148,35,22,22,23,2
24,34,211,139,35,23,23,23,2
25,31,148,115,37,22,23,24,2
20,27,148,103,33,24,20,20,2
21,32,150,104,33,24,19,21,2
22,30,148,90,34,25,18,20,2
23,34,169,159,34,23,17,20,2
25,32,137,176,32,24,17,19,2
23,34,133,179,29,24,19,19,2
22,31,165,181,28,23,20,18,2
23,32,168,191,30,21,21,16,2
22,31,166,140,28,21,22,17,2
23,32,210,149,30,20,22,20,2
23,30,215,181,31,19,23,21,2
24,34,210,178,29,20,24,24,2
23,33,211,177,28,21,25,24,2
23,33,214,176,28,22,25,23,2
23,35,196,164,26,22,25,21,2
25,41,207,139,29,24,23,20,2
23,36,199,154,32,23,23,18,2
23,36,196,140,31,23,21,18,2
23,36,178,150,32,24,19,19,2
22,32,137,130,33,23,19,18,2
21,29,125,130,30,24,19,20,2
21,28,112,128,28,24,18,20,2
22,30,112,140,30,23,19,21,2
20,28,119,157,31,23,21,20,2
19,28,120,157,29,25,20,20,2
19,33,215,144,27,23,18,20,2
21,35,230,147,32,22,21,23,2
21,32,230,135,32,22,19,22,2
24,35,234,102,31,23,18,25,2
24,36,239,115,37,23,19,26,2
23,27,149,116,37,22,19,25,2
22,30,151,91,33,23,17,23,2
22,31,153,96,33,22,20,23,2
21,28,147,108,34,20,19,21,2
20,28,138,106,31,19,20,20,2
20,29,137,110,35,20,20,21,2
24,25,132,143,36,23,21,21,2
23,27,133,143,34,24,18,21,2
24,30,142,143,35,26,22,20,2
27,29,140,129,32,25,20,19,2
28,30,151,129,30,27,20,21,2
25,29,128,108,30,25,21,19,2
25,31,137,108,31,24,21,18,2
25,29,117,94,26,22,19,18,2
24,32,121,141,28,23,20,18,2
25,32,111,138,25,22,21,17,2
28,34,105,144,25,21,21,19,2
28,30,113,159,27,23,19,18,2
27,31,120,182,27,23,19,19,2
27,31,126,154,25,24,20,21,2
26,29,127,156,26,24,20,19,2
25,29,180,154,25,24,21,19,2
23,30,167,139,21,23,21,21,2
24,28,163,117,23,24,22,20,2
24,26,170,136,24,26,22,23,2
25,29,164,130,22,24,21,23,2
23,25,145,142,26,25,20,23,2
25,27,161,143,26,23,20,24,2
24,27,166,145,27,23,19,25,2
23,26,155,131,27,21,21,22,2
22,25,157,156,33,21,20,21,2
23,26,141,141,31,21,18,21,2
20,27,124,134,31,22,20,20,2
22,29,120,136,29,21,21,17,2
22,29,119,142,31,22,21,17,2
21,32,123,138,27,23,22,18,2
22,36,97,129,28,23,23,21,2
23,34,89,154,31,24,23,21,2
21,31,84,145,32,23,23,22,2
20,33,129,151,30,24,20,25,2
22,31,123,134,30,24,20,24,2
20,28,141,167,35,25,21,23,2
20,31,141,148,33,25,19,22,2
20,32,143,160,32,24,20,21,2
21,31,110,142,31,24,22,19,2
21,33,137,173,31,25,22,21,2
23,32,124,143,25,24,21,19,2
25,31,169,156,27,24,21,20,2
27,32,176,149,31,25,23,20,2
27,30,171,147,31,25,22,20,2
27,28,202,183,40,24,22,20,2
26,28,219,192,42,23,23,20,2
28,27,189,182,40,21,23,19,2
26,28,183,178,39,24,21,18,2
27,34,188,215,44,23,22,19,2
27,34,139,158,33,23,21,19,2
26,34,106,166,36,25,20,19,2
24,34,100,162,35,24,20,21,2
24,33,96,161,35,21,23,22,2
24,27,82,110,29,22,21,20,2
24,31,67,115,29,23,22,22,2
23,29,63,108,28,22,20,22,2
22,30,69,130,29,23,22,21,2
23,32,86,133,28,24,19,22,2
21,33,94,147,27,23,22,23,2
19,29,98,147,30,21,21,21,2
20,29,100,131,25,21,22,22,2
20,30,105,118,27,21,20,22,2
20,26,92,127,27,22,21,21,2
20,30,86,118,31,22,19,21,2
21,31,76,104,29,22,18,20,2
21,34,98,157,31,22,18,20,2
23,34,91,152,31,22,17,18,2
23,36,95,144,36,21,17,19,2
25,33,92,142,32,21,17,20,2
25,33,95,155,37,22,19,21,2
25,30,62,106,34,23,20,20,2
24,29,64,109,36,22,21,21,2
24,27,59,105,34,23,21,21,2
25,28,55,93,33,23,21,20,2
27,30,80,110,30,22,20,19,2
26,28,86,108,30,21,19,20,2
24,28,88,117,28,22,20,22,2
26,29,90,127,24,23,20,23,2
22,28,96,149,25,21,23,23,2
22,24,78,125,23,20,23,22,2
22,24,76,133,26,23,24,23,2
25,23,91,121,24,22,23,22,2
22,23,97,121,25,21,24,21,2
28,27,106,134,29,22,22,22,2
27,28,107,133,28,21,21,22,2
29,29,109,125,27,23,20,22,2
27,29,94,130,26,22,20,19,2
28,30,108,132,27,23,19,21,2
23,29,104,94,25,25,20,20,2
23,29,108,92,26,26,20,21,2
21,32,108,106,28,23,19,20,2
23,31,116,137,31,24,19,20,2
23,31,95,132,31,23,18,19,2
23,27,84,130,28,19,17,19,2
23,27,79,131,29,20,17,19,2
23,26,77,119,27,22,19,18,2
20,26,69,82,27,19,20,22,2
20,27,71,97,26,21,21,22,2
22,29,77,95,28,23,22,21,2
22,28,72,94,27,22,22,22,2
22,28,69,95,28,20,20,23,2
23,27,65,106,26,23,21,21,2
22,24,60,83,25,22,21,21,2
21,25,52,83,24,19,19,21,2
23,27,57,82,25,20,22,20,2
22,25,66,95,24,21,21,21,2
22,26,66,82,22,18,21,21,2
23,28,83,113,21,19,20,22,2
23,26,93,157,25,21,22,23,2
23,28,101,159,23,22,20,23,2
24,29,97,150,24,22,21,21,2
23,30,121,190,28,23,22,21,2
24,27,114,175,29,22,23,20,2
24,28,108,152,28,21,20,20,2
21,26,102,159,30,20,21,21,2
23,30,102,163,32,20,21,21,2
25,30,73,110,29,20,21,20,2
22,31,71,126,30,21,21,18,3
22,34,78,121,31,22,22,17,3
22,34,72,128,32,22,21,16,3
21,36,76,124,28,21,21,18,3
19,35,86,121,28,21,20,19,3
20,35,91,107,28,23,22,20,3
22,32,103,144,33,22,23,19,3
22,33,104,131,30,22,21,20,3
21,26,104,133,32,24,19,19,3
23,27,98,147,33,23,21,22,3
23,28,101,153,33,20,19,21,3
24,29,82,144,32,20,20,22,3
26,27,80,144,35,21,22,20,3
25,28,73,145,35,20,23,19,3
23,28,87,167,37,22,21,16,3
24,28,83,163,37,23,21,17,3
21,27,85,132,32,22,19,19,3
20,29,86,155,28,22,20,21,3
21,29,88,189,31,22,19,22,3
22,29,78,175,29,21,20,23,3
23,28,79,178,32,23,20,22,3
22,28,80,181,32,24,20,20,3
23,26,84,159,33,24,19,20,3
22,27,80,115,28,23,21,20,3
21,25,75,109,29,25,20,19,3
20,25,78,125,27,22,21,19,3
22,28,76,122,26,22,20,19,3
21,27,74,121,25,20,21,21,3
21,25,75,117,27,22,21,22,3
23,27,71,109,24,18,20,21,3
25,26,68,89,22,19,20,19,3
24,26,72,93,23,18,21,20,3
25,26,70,95,23,18,20,19,3
26,27,70,96,21,18,18,18,3
25,28,65,98,24,20,20,19,3
23,28,55,85,23,18,19,21,3
24,27,45,85,22,20,20,21,3
24,27,45,107,23,23,20,20,3
23,28,49,116,23,21,19,20,3
25,25,46,104,19,20,18,19,3
26,24,63,118,23,21,18,19,3
26,25,72,119,26,22,18,21,3
25,27,73,100,26,19,18,22,3
25,26,79,101,26,19,18,23,3
24,39,114,105,28,21,26,25,3
23,43,114,111,27,23,35,29,3
23,43,116,103,25,24,35,27,3
24,41,119,110,25,24,36,29,3
25,45,122,126,27,26,38,37,3
23,39,116,132,26,24,33,39,3
28,48,200,142,28,26,46,52,3
27,51,231,179,30,24,47,53,3
33,88,305,208,48,40,56,56,3
41,100,358,203,51,40,77,68,3
61,123,432,254,63,47,82,79,3
76,161,564,251,66,48,108,131,3
81,176,713,265,70,48,161,150,3
88,167,741,267,62,40,168,167,3
106,185,785,345,69,42,176,200,3
103,187,888,393,68,37,183,231,3
96,176,845,406,68,37,171,227,3
116,175,812,428,82,42,155,293,3
114,189,798,416,87,42,148,299,3
103,173,756,381,85,39,132,286,3
99,170,775,376,85,37,122,268,3
96,146,750,372,82,36,115,255,3
80,132,694,331,66,30,110,241,3
76,130,721,390,62,31,108,238,3
66,128,702,361,57,31,115,235,3
63,111,576,302,49,31,124,232,3
62,114,548,297,51,32,125,234,3
53,114,576,324,51,33,101,262,3
51,94,517,253,47,30,105,258,3
52,110,580,292,58,31,111,267,3
51,117,526,272,59,33,108,268,3
53,126,555,266,60,32,106,264,3
54,130,575,260,57,32,116,166,3
55,128,631,281,57,33,115,159,3
53,105,581,247,45,31,109,150,3
52,97,618,304,47,33,117,153,3
49,83,616,306,48,34,118,154,3
36,73,539,287,51,32,99,150,3
41,70,485,306,52,32,112,151,3
46,82,492,303,54,31,116,130,3
53,90,470,235,54,30,108,121,3
54,91,460,262,55,31,106,148,3
55,96,460,284,56,33,110,140,3
49,102,488,251,52,32,103,135,3
50,125,548,262,50,33,95,133,3
45,120,575,291,49,32,96,142,3
45,122,613,276,45,32,104,129,3
44,118,632,249,41,32,112,127,3
43,114,636,246,39,31,112,127,3
36,88,579,251,39,30,113,136,3
40,93,625,232,37,30,110,133,3
41,96,572,225,40,27,102,113,3
42,94,578,230,39,23,100,115,3
43,89,553,247,40,25,91,121,3
45,80,578,230,45,26,79,109,3
42,87,529,224,47,28,74,95,3
40,84,521,230,45,27,83,95,3
42,83,499,217,44,29,88,93,3
41,84,511,197,42,28,87,80,3
38,82,494,200,40,26,88,82,3
38,68,400,244,38,24,94,80,3
40,64,463,223,39,26,85,69,3
36,63,473,227,39,25,81,85,3
39,64,496,225,40,25,82,93,3
40,70,514,272,54,29,83,99,3
36,65,524,237,54,29,80,102,3
36,62,502,235,52,28,81,104,3
39,67,506,270,55,29,70,92,3
36,67,482,265,57,29,68,89,3
35,69,489,243,53,27,69,80,3
36,70,483,253,49,27,71,72,3
37,79,488,255,50,28,82,74,3
35,74,496,216,46,26,91,80,3
36,75,491,228,49,26,92,70,3
37,91,500,225,39,24,92,70,3
37,94,496,204,39,23,89,71,3
35,93,501,221,40,23,79,75,3
36,94,471,222,42,24,79,74,3
37,102,550,242,42,27,80,93,3
33,82,518,210,40,28,77,91,3
35,79,532,209,41,32,111,105,3
32,77,564,264,43,32,113,112,3
31,86,570,272,41,31,102,105,3
31,78,485,243,38,29,102,93,3
33,82,492,258,44,28,107,95,3
29,82,516,331,47,26,81,89,3
43,77,450,313,43,25,94,112,3
47,67,482,305,42,24,105,128,3
48,77,505,305,42,24,106,129,3
50,85,581,306,37,23,102,131,3
51,85,616,228,35,23,103,127,3
43,86,611,193,39,25,89,104,3
40,91,623,195,40,25,75,82,3
37,88,581,234,40,27,80,76,3
36,80,504,237,38,27,79,70,3
38,78,454,236,38,28,72,67,3
36,77,471,217,35,28,81,72,3
35,75,402,245,36,32,85,80,3
35,65,416,201,38,29,76,81,3
36,63,406,200,39,28,75,82,3
33,63,358,245,40,27,77,90,3
36,67,340,261,39,26,91,96,3
40,74,327,291,41,23,87,92,3
39,74,322,303,38,22,86,98,3
39,75,333,333,42,26,91,107,3
38,73,373,312,45,28,89,100,3
37,69,406,317,49,29,71,93,3
33,57,404,263,48,29,66,91,3
37,67,450,252,46,29,67,87,3
35,59,413,213,43,26,58,73,3
40,64,428,196,41,28,54,71,3
40,62,377,250,40,28,51,64,3
39,62,373,262,40,27,58,76,3
37,58,420,262,41,28,59,74,3
40,67,529,269,39,28,70,87,3
36,85,600,276,36,25,71,93,3
38,92,605,255,34,26,75,86,3
36,92,612,241,32,26,69,73,3
36,88,539,254,34,25,70,72,3
33,91,475,253,41,26,70,66,3
31,69,342,286,41,29,68,66,3
30,63,346,243,39,27,58,70,3
31,64,341,253,41,27,73,83,3
31,62,373,243,42,28,72,84,3
27,47,335,249,33,26,62,80,3
30,53,317,196,35,24,68,77,3
31,62,312,230,39,25,67,81,3
31,59,295,222,39,26,51,68,3
37,72,292,257,41,28,70,77,3
40,76,284,229,42,27,71,73,3
38,79,364,241,46,30,70,80,3
37,75,367,205,42,29,66,71,3
39,78,403,215,45,28,70,80,3
32,64,369,166,40,26,52,70,3
32,79,373,214,43,28,54,70,3
45,93,340,245,52,27,50,61,3
44,91,325,255,53,28,52,62,3
43,91,283,243,51,28,45,51,3
43,92,273,237,51,28,45,55,3
43,83,326,197,52,29,42,57,3
32,84,360,213,45,28,36,51,3
35,90,409,212,47,28,34,50,3
34,91,416,215,46,27,41,66,3
36,93,457,226,48,26,45,69,3
33,92,440,246,49,25,54,70,3
32,74,380,187,42,24,57,77,3
30,68,339,173,40,22,61,88,3
31,66,403,187,43,24,58,81,3
32,62,419,208,46,28,56,79,3
39,75,427,196,41,30,74,84,3
38,70,443,193,44,30,77,83,3
39,75,442,199,43,31,76,71,3
43,79,415,216,45,32,78,77,3
41,83,398,184,43,30,78,73,3
37,70,391,187,43,28,72,75,3
39,85,372,200,40,28,70,75,3
38,83,366,193,46,30,69,75,3
32,76,317,160,40,28,66,66,3
40,97,404,180,47,29,74,75,3
38,93,382,157,48,27,58,66,3
36,80,400,177,50,28,65,70,3
36,79,404,199,46,26,66,69,3
37,80,420,200,46,26,69,75,3
32,54,343,203,41,23,61,65,3
36,63,417,228,43,26,61,70,3
35,62,394,198,39,24,49,60,3
35,61,388,200,46,26,46,64,3
34,62,374,194,47,25,43,59,3
34,62,385,200,53,28,38,63,3
30,55,295,167,50,26,36,59,3
35,83,414,191,55,30,68,73,3
34,82,434,195,48,28,70,73,3
35,82,498,268,47,29,69,72,3
35,81,482,260,36,26,69,73,3
34,83,479,312,42,28,73,72,3
30,55,411,313,36,24,45,62,3
31,58,451,342,36,25,44,64,3
33,59,420,309,38,26,43,61,3
30,54,372,326,37,27,44,55,3
32,55,392,328,34,27,38,68,3
33,56,371,318,34,28,41,68,3
36,53,415,311,34,29,52,70,3
37,58,414,294,33,28,52,74,3
38,55,443,274,34,26,54,80,3
37,53,489,233,35,27,55,80,3
38,54,506,261,38,29,63,91,3
35,54,429,239,36,26,52,86,3
37,57,449,261,42,31,55,87,3
39,59,432,263,42,31,51,81,3
42,62,412,270,44,33,57,74,3
39,57,378,241,40,30,47,56,3
44,70,410,265,47,34,51,63,3
38,64,352,268,47,32,47,57,3
36,64,346,261,50,35,46,57,3
33,67,313,246,47,32,42,57,3
34,73,330,256,49,33,40,54,3
29,63,340,221,44,30,45,51,3
28,62,343,232,43,29,44,52,3
30,65,377,233,41,26,48,61,3
31,66,417,263,42,28,43,64,3
31,59,403,251,40,26,44,73,3
29,66,445,245,39,26,38,74,3
32,65,463,226,35,25,40,75,3
29,66,456,227,40,27,38,70,3
28,64,438,180,42,27,40,69,3
28,64,438,192,43,29,41,65,3
31,56,366,174,44,31,37,58,3
30,61,390,195,44,30,36,58,3
29,56,392,199,39,29,34,52,3
28,48,365,211,37,27,36,43,3
27,53,464,210,38,26,37,54,3
28,57,491,230,43,25,44,59,3
32,59,483,212,42,26,46,59,3
31,60,475,199,39,24,45,61,3
32,60,477,202,41,25,44,62,3
34,62,493,193,41,27,57,71,3
32,56,454,180,37,25,57,72,3
39,67,450,156,43,26,55,72,3
41,67,435,155,45,26,55,71,3
40,65,415,177,46,26,62,73,3
41,60,274,174,46,26,50,52,3
39,61,357,182,47,28,50,52,3
31,46,327,191,41,25,53,56,3
31,48,359,199,40,26,53,58,3
31,47,359,157,36,24,43,68,3
29,47,365,174,37,23,43,70,3
29,47,288,191,33,23,43,75,3
30,40,307,190,33,24,39,71,3
31,50,283,199,38,25,41,74,3
29,53,299,210,35,25,39,66,3
30,53,291,256,39,26,40,65,3
34,51,291,245,41,28,39,64,3
34,53,256,242,44,28,40,63,3
36,54,291,246,44,27,41,60,3
37,54,309,239,44,27,43,60,3
37,56,353,204,42,26,42,61,3
32,57,334,200,41,23,43,65,3
34,62,374,236,47,27,44,76,3
30,55,373,228,50,28,48,81,3
32,54,356,223,54,28,51,76,3
30,51,329,210,52,30,49,74,3
30,50,386,230,52,29,49,64,3
28,40,399,183,44,25,49,54,3
28,42,438,188,36,27,44,58,3
29,41,486,216,33,28,43,72,3
31,47,476,204,30,25,43,78,3
31,49,442,184,34,25,43,78,2
33,55,447,209,41,30,48,80,2
31,51,387,202,42,27,47,69,2
35,62,341,196,48,30,43,56,2
34,60,354,227,49,30,43,51,2
36,67,363,283,50,33,45,52,2
32,60,322,284,43,28,37,43,2
33,59,303,280,43,29,37,49,2
27,48,348,275,37,25,35,49,2
26,46,340,254,38,24,37,49,2
26,34,345,203,33,23,38,57,2
28,58,372,195,35,26,39,58,2
32,68,394,197,38,26,50,63,2
47,73,363,195,37,26,56,69,2
50,77,385,185,38,27,62,70,2
53,80,369,173,39,26,60,64,2
55,66,329,161,40,24,60,63,2
54,62,363,159,38,23,53,54,2
42,57,382,159,36,23,48,45,2
39,51,411,192,37,25,41,50,2
36,71,554,173,37,26,39,56,2
32,70,546,161,33,27,40,60,2
32,68,538,219,42,29,40,63,2
32,73,516,208,45,29,39,66,2
30,72,477,203,43,27,36,59,2
26,48,286,209,41,26,36,55,2
27,52,336,212,44,25,41,58,2
26,58,335,216,38,24,38,52,2
26,62,396,233,39,27,35,49,2
29,64,418,214,40,27,40,48,2
45,80,453,218,44,28,43,42,2
70,78,424,234,41,27,36,34,2
122,73,407,186,42,27,38,45,2
125,66,362,176,46,24,39,43,2
125,65,339,176,52,25,34,43,2
122,45,287,185,105,28,27,42,2
110,42,271,190,116,33,30,41,2
43,34,232,180,121,33,25,28,2
33,29,149,179,121,33,25,26,2
33,24,101,181,121,34,22,25,2
36,24,69,152,82,34,24,23,2
35,27,69,170,129,35,22,20,2
35,24,60,177,136,37,23,19,2
36,24,56,162,138,38,25,22,2
34,25,55,186,139,38,26,23,2
23,24,54,184,136,33,24,22,2
22,23,38,137,96,30,23,23,2
20,24,36,128,90,27,22,24,2
18,24,35,133,91,26,19,21,2
19,24,27,84,88,23,20,21,2
21,24,26,83,88,25,22,21,2
21,23,26,87,74,22,24,20,2
22,23,39,86,59,20,25,19,2
23,22,38,84,49,21,24,20,2
22,21,38,87,48,22,24,20,2
23,22,40,110,63,22,23,19,2
22,20,39,106,62,25,21,19,2
22,21,28,104,66,26,19,20,2
21,23,27,100,66,27,21,19,2
23,21,29,95,66,26,22,17,2
21,21,29,79,54,25,21,18,2
21,22,29,80,56,22,22,18,2
23,22,27,72,62,24,23,18,2
21,20,28,82,63,22,22,18,2
19,21,28,88,65,22,21,18,2
20,21,25,80,63,23,21,18,2
21,21,26,84,59,24,20,18,2
19,22,28,90,53,22,19,16,2
21,22,27,83,52,24,20,16,2
22,22,24,79,48,24,20,16,2
23,21,24,89,47,22,20,17,2
22,21,24,83,48,22,20,17,2
22,22,22,71,37,20,19,18,2
22,23,25,87,85,23,21,18,2
22,21,25,89,93,24,21,19,2
22,21,25,84,94,23,22,18,2
21,23,24,87,95,24,21,19,2
21,21,23,87,97,25,21,17,2
20,22,23,67,59,22,18,16,2
19,23,26,75,48,22,17,16,2
18,23,29,96,56,22,19,18,2
20,22,30,95,56,21,20,18,2
21,22,31,101,57,21,20,20,2
22,21,32,103,57,22,21,20,2
21,21,31,114,60,24,23,22,2
20,22,28,93,52,24,23,19,2
22,21,27,90,52,24,23,21,2
21,20,29,93,58,23,24,22,2
22,22,28,98,60,23,24,21,2
23,22,26,77,59,20,22,20,2
24,19,28,87,59,19,20,21,2
23,21,28,100,56,18,20,20,2
23,20,28,107,55,22,19,19,2
23,18,24,100,51,21,18,21,2
22,20,25,104,49,21,19,22,2
22,22,24,96,51,22,18,22,2
21,23,24,89,55,23,20,22,2
22,23,22,95,50,22,20,21,2
20,23,27,113,51,23,19,21,2
19,23,27,107,52,23,18,21,2
20,21,25,109,52,25,19,21,2
18,19,27,106,48,24,18,19,2
18,20,26,84,46,22,19,19,2
21,20,24,70,44,23,19,19,2
21,20,23,77,39,23,21,18,2
23,21,24,73,37,19,21,19,2
23,21,21,72,43,21,22,20,2
23,22,22,69,43,23,21,20,2
20,22,20,64,42,21,22,20,2
21,22,23,62,43,21,22,20,2
17,22,23,81,45,22,22,17,2
18,22,24,79,40,21,20,17,2
19,22,23,81,41,20,22,17,2
20,22,24,82,43,20,21,19,2
19,25,27,81,41,20,20,18,2
21,23,26,66,38,22,20,19,2
21,25,70,74,40,23,20,20,2
19,24,74,77,37,22,18,21,2
19,25,75,78,35,22,18,20,2
20,26,78,82,41,22,18,20,2
18,28,81,89,43,20,17,21,2
20,27,61,85,43,20,17,20,2
20,27,57,80,43,20,18,19,2
21,25,58,79,43,20,19,19,2
20,22,51,77,43,21,20,18,2
22,22,54,74,41,20,21,17,2
21,21,41,72,39,20,23,18,2
21,22,41,75,41,21,22,22,2
21,22,40,81,47,24,21,21,2
22,20,39,82,46,23,21,23,2
22,18,33,83,50,23,20,23,2
23,21,36,82,55,23,19,23,2
23,20,47,80,54,22,19,20,2
22,20,49,67,50,21,19,21,2
22,23,57,59,50,21,21,22,2
23,25,67,49,46,22,21,22,2
21,26,72,107,47,21,19,23,2
21,26,66,112,56,24,21,24,2
22,27,70,113,54,24,21,22,2
21,25,70,113,50,26,20,21,2
21,25,61,113,50,25,20,19,2
21,23,59,57,44,24,22,17,2
21,23,64,48,36,23,22,16,2
20,23,61,59,38,22,23,19,2
20,24,55,59,37,20,23,20,2
20,24,68,61,38,23,23,21,2
20,24,66,63,42,23,22,21,2
21,23,64,61,38,23,21,22,2
22,24,61,49,36,24,21,21,2
21,24,61,68,38,23,21,20,2
22,23,52,86,40,22,22,19,2
22,24,60,86,40,24,21,21,2
23,23,59,83,40,24,22,20,2
22,24,60,83,43,22,22,20,2
22,26,64,76,45,23,20,21,2
21,24,59,79,49,23,21,21,2
22,23,45,88,59,20,21,19,2
21,25,44,93,65,20,21,19,2
22,24,60,95,66,21,22,21,2
23,24,72,105,66,24,22,20,2
22,26,80,93,64,23,21,20,2
21,26,86,89,53,25,19,22,2
22,26,88,85,47,24,19,22,2
20,24,83,98,44,24,19,20,2
19,24,71,83,43,21,20,20,2
19,25,59,84,42,21,22,18,2
19,25,51,89,41,19,23,16,2
19,24,56,98,46,20,22,18,2
21,26,49,84,45,20,22,17,2
22,25,53,81,43,19,22,17,2
22,25,53,71,40,22,20,19,2
22,25,53,69,38,21,20,22,2
21,24,50,62,33,20,21,22,2
22,22,47,58,33,20,21,22,2
22,24,41,73,34,21,20,23,2
22,20,38,80,37,20,20,21,2
21,20,37,89,41,20,20,20,2
24,23,32,87,47,20,20,19,2
24,25,31,89,48,21,20,19,2
24,23,33,79,48,20,19,18,2
24,25,35,81,46,20,18,18,2
24,25,34,59,42,20,19,17,2
22,24,31,57,35,21,19,19,2
22,22,33,65,34,21,19,18,2
21,23,29,65,35,22,19,19,2
23,22,30,66,34,20,19,20,2
22,23,33,69,35,19,21,23,2
24,24,32,80,38,19,19,20,2
25,24,31,74,44,21,20,22,2
24,23,31,74,50,22,21,23,2
22,24,30,64,51,24,21,23,2
23,24,28,61,52,25,18,21,2
20,23,28,57,50,24,21,23,2
18,25,29,104,44,24,20,24,2
18,26,30,106,37,24,19,22,2
19,26,34,118,38,24,21,22,2
19,27,42,131,38,25,23,22,2
19,28,42,130,50,27,22,21,2
19,28,41,119,66,28,20,19,2
20,28,42,133,69,29,21,20,2
22,27,39,129,69,28,22,22,2
20,27,40,117,70,27,21,22,2
21,25,47,128,64,27,21,24,2
21,25,48,110,51,25,21,24,2
21,24,48,94,50,23,20,23,2
19,25,48,100,50,23,18,22,2
19,24,40,103,53,23,19,21,2
21,25,31,84,53,25,20,21,2
21,24,33,85,51,24,21,21,2
20,23,31,110,50,25,22,23,2
22,22,32,99,60,26,22,22,2
23,25,52,105,60,25,21,23,2
22,24,54,107,57,22,19,21,2
21,23,53,105,57,22,20,21,2
23,23,53,101,60,23,20,19,2
22,25,52,99,56,22,21,20,2
21,21,38,91,53,22,21,20,2
23,25,33,97,57,22,21,20,2
23,24,33,114,56,23,21,19,2
22,25,33,95,49,20,20,19,2
24,24,37,93,41,21,21,20,2
25,25,37,97,40,21,20,19,2
23,22,41,122,37,23,20,20,2
24,22,40,108,38,22,19,20,2
26,22,43,114,45,24,21,20,2
25,23,41,131,46,21,18,19,2
23,24,42,156,47,23,19,20,2
25,24,40,144,54,22,18,19,2
24,24,41,143,56,24,18,20,2
23,24,39,154,56,24,17,20,2
21,24,36,144,60,25,18,19,2
24,25,31,118,60,25,18,19,2
21,24,31,112,54,26,20,21,2
22,26,31,128,53,24,20,22,2
23,28,31,106,50,22,19,23,2
21,27,30,106,43,22,20,23,2
20,26,31,106,47,23,19,22,2
21,28,33,100,50,23,17,19,2
21,28,37,83,53,23,19,20,2
23,26,35,92,56,25,19,21,2
24,26,37,100,60,25,22,22,2
23,25,37,96,59,22,22,23,2
24,24,37,93,54,22,23,23,2
22,23,33,96,55,22,22,20,2
21,23,38,113,52,20,24,23,2
21,22,35,103,48,21,22,22,2
22,24,36,105,53,22,22,22,2
21,23,34,109,56,23,22,21,2
22,23,33,105,58,25,22,22,2
20,22,29,80,57,25,20,20,2
18,23,33,91,61,27,20,22,2
18,23,30,99,56,28,22,21,2
18,23,32,105,57,28,20,21,2
19,23,33,113,51,27,20,21,2
20,24,33,143,64,27,20,22,2
23,26,31,144,61,25,20,20,2
22,25,33,137,64,23,19,21,2
22,26,38,133,63,23,20,22,2
21,27,41,130,64,23,20,21,2
21,26,38,116,52,23,20,20,2
19,24,39,114,50,23,20,20,2
22,24,38,117,52,24,21,21,2
23,23,37,115,52,23,20,22,2
23,21,32,106,51,24,21,24,2
22,20,34,91,49,24,21,25,2
22,25,32,93,49,23,20,24,2
22,24,37,105,46,22,20,23,2
20,24,33,109,41,22,20,23,2
20,25,34,116,48,22,18,19,2
21,26,32,119,50,20,18,19,2
22,22,35,112,53,21,19,19,2
21,23,29,93,54,22,17,19,2
23,24,31,99,57,23,18,17,2
24,24,35,118,50,22,17,16,2
23,23,36,117,48,23,16,17,2
21,23,35,114,49,23,17,17,2
22,25,37,129,55,23,18,18,2
21,24,37,136,59,20,20,19,2
20,22,33,118,60,23,22,20,2
20,22,35,114,59,24,22,19,2
19,23,35,113,55,23,21,19,2
21,20,34,118,46,23,21,19,2
20,20,34,111,38,25,20,18,2
21,22,32,107,40,23,17,17,2
20,24,31,109,50,22,17,20,2
22,23,28,123,56,23,20,22,2
21,26,26,101,58,22,21,22,2
21,28,27,99,59,20,19,23,2
22,28,31,101,65,21,20,24,2
23,26,30,96,67,22,18,22,1
22,26,32,82,61,22,15,19,1
21,25,33,86,59,21,18,21,1
22,23,33,88,65,22,22,20,1
22,24,32,83,60,22,23,19,1
21,23,33,90,57,22,26,21,1
20,25,32,96,64,21,25,21,1
20,25,30,94,65,23,24,20,1
20,23,29,88,63,24,22,20,1
19,23,27,111,76,23,22,19,1
22,25,28,118,76,24,19,18,1
23,22,31,113,75,23,21,19,1
23,23,32,118,72,22,22,19,1
24,26,33,115,66,23,21,21,1
22,26,33,105,51,22,21,23,1
20,23,31,98,45,22,21,21,1
20,24,31,103,49,23,20,20,1
18,25,30,101,53,23,19,22,1
18,23,32,111,63,24,19,20,1
20,23,31,104,63,23,19,20,1
22,24,30,110,62,22,22,23,1
23,25,29,112,61,22,21,24,1
24,23,28,122,71,23,22,21,1
27,22,23,123,64,21,23,21,1
29,24,33,124,66,22,23,21,1
28,26,44,160,71,22,21,18,1
28,25,45,165,82,25,22,18,1
40,32,52,168,79,26,23,23,1
47,42,54,163,80,29,22,23,1
52,46,53,172,78,29,22,23,1
60,53,69,161,79,29,22,26,1
91,58,76,172,74,28,53,63,1
131,61,88,239,72,28,55,66,1
176,77,114,260,70,26,59,72,1
191,87,197,267,69,26,61,80,1
215,94,228,265,67,31,76,108,1
264,127,275,274,73,35,76,147,1
319,141,275,212,70,38,76,153,1
326,153,273,188,70,43,81,170,1
359,175,236,175,72,48,128,187,1
352,185,232,178,73,50,144,188,1
328,165,185,167,68,49,140,155,1
290,177,183,186,82,55,208,155,1
261,159,173,186,103,54,211,142,1
209,132,155,183,109,50,189,116,1
208,114,154,191,130,53,177,94,1
201,125,159,192,141,54,175,102,1
235,102,155,208,139,52,98,134,1
280,113,154,213,139,50,85,138,1
403,133,156,228,165,56,87,188,1
453,157,110,248,156,52,92,202,1
480,173,77,252,154,51,96,205,1
494,197,97,254,160,47,89,190,1
480,197,146,278,173,47,87,182,1
403,183,143,268,147,42,82,137,1
430,194,141,226,138,43,71,143,1
412,179,141,206,128,42,60,140,1
387,155,129,190,117,45,60,148,1
414,161,70,156,101,46,59,151,1
513,213,75,164,109,45,56,153,1
455,204,78,195,108,42,49,130,1
517,207,77,203,105,43,55,138,1
522,201,75,205,100,37,44,119,1
508,189,71,198,76,32,43,120,1
553,274,86,216,88,45,81,230,1
558,287,85,189,89,45,79,232,1
498,282,85,193,90,43,77,225,1
554,303,90,180,112,44,80,233,1
544,305,90,176,118,44,82,235,1
378,203,66,150,102,31,51,128,1
388,192,70,162,109,37,53,129,1
378,191,69,144,108,35,50,122,1
262,156,65,136,97,34,45,105,1
251,153,65,150,93,35,43,95,1
239,130,59,153,91,33,36,76,1
343,127,47,144,83,29,62,82,1
356,129,47,153,84,30,69,79,1
344,125,37,155,73,30,69,73,1
387,134,41,165,76,30,70,84,1
399,136,47,181,92,32,71,87,1
294,96,45,181,95,35,46,75,1
272,98,46,193,102,35,34,74,1
292,123,48,199,113,36,35,80,1
237,117,47,195,110,35,31,70,1
302,127,43,176,102,34,34,89,1
295,137,41,174,97,30,37,89,1
380,147,41,157,88,30,45,105,1
388,142,42,176,78,29,47,102,1
403,144,40,181,86,34,48,110,1
364,139,40,178,85,36,46,96,1
386,127,41,196,90,37,43,95,1
342,119,39,193,93,37,35,80,1
353,136,41,161,85,37,35,80,1
375,147,42,137,92,35,36,79,1
359,141,39,132,86,34,35,75,1
336,144,38,105,82,33,35,72,1
301,134,40,119,83,31,35,66,1
259,101,40,148,88,33,31,66,1
240,74,37,162,74,30,27,54,1
309,94,41,184,79,29,29,69,1
341,90,41,184,80,29,29,70,1
357,116,41,179,81,30,30,73,1
363,116,42,180,78,26,28,67,1
383,146,49,164,76,25,30,67,1
352,173,57,135,73,25,33,64,1
317,185,60,136,77,25,33,63,1
325,174,58,141,80,26,32,62,1
312,188,59,115,91,30,34,64,1
300,172,55,116,94,33,36,66,1
294,131,43,147,108,34,32,63,1
295,113,40,143,106,35,34,65,1
295,123,43,141,103,33,35,69,1
310,105,40,137,106,33,36,76,1
281,98,38,136,103,32,33,77,1
259,115,46,151,91,30,33,75,1
248,119,47,164,88,29,29,70,1
209,107,43,154,88,29,28,63,1
224,117,42,162,82,31,29,60,1
205,123,43,169,83,28,28,55,1
196,106,37,128,77,29,27,54,1
205,96,40,131,76,29,29,54,1
239,104,48,172,83,29,33,70,1
202,86,49,171,76,26,32,66,1
221,96,48,175,86,30,34,67,1
266,115,52,227,93,33,38,73,1
278,123,50,229,98,34,40,75,1
320,121,47,207,96,39,45,71,1
371,126,56,208,105,38,54,95,1
370,118,58,198,96,36,56,100,1
356,105,57,146,92,34,56,95,1
344,99,55,130,87,34,54,92,1
279,96,54,122,84,30,47,88,1
240,91,43,120,71,31,42,70,1
273,115,42,125,80,33,42,77,1
257,117,42,128,80,31,39,74,1
269,119,45,128,82,29,39,74,1
270,117,41,120,77,26,40,70,1
260,131,43,127,78,24,35,58,1
236,110,43,150,81,20,34,48,1
254,119,48,150,83,27,37,53,1
257,116,47,161,92,30,39,58,1
262,118,49,165,97,38,43,61,1
245,110,53,164,95,39,41,65,1
215,109,52,148,87,42,40,56,1
210,95,46,156,83,38,38,53,1
206,98,43,146,65,36,35,47,1
218,95,41,149,62,27,37,46,1
237,91,34,137,60,28,36,47,1
251,93,32,130,53,25,36,52,1
240,116,43,117,53,27,38,56,1
265,115,43,137,68,30,46,65,1
288,133,51,134,78,35,43,72,1
329,160,57,140,86,34,45,87,1
331,159,57,135,90,35,45,84,1
347,151,56,136,90,35,44,86,1
314,148,56,101,82,32,36,81,1
295,168,62,106,81,29,35,75,1
265,140,54,92,74,31,43,68,1
258,134,58,116,72,32,43,68,1
330,149,58,110,72,32,47,92,1
333,162,59,114,75,31,47,92,1
321,125,46,107,67,31,45,91,1
290,121,46,120,68,29,35,81,1
298,124,43,123,70,30,34,84,1
224,101,35,124,72,29,29,53,1
257,140,49,130,70,28,29,60,1
262,142,50,158,69,25,29,63,1
289,155,54,147,70,25,27,68,1
286,189,67,132,80,22,33,72,1
272,204,71,127,83,21,34,75,1
236,171,61,143,82,21,35,74,1
248,176,60,125,80,23,35,72,1
232,178,58,125,78,24,35,68,1
231,147,41,139,65,24,30,62,1
226,117,34,143,59,24,26,62,1
241,124,34,121,60,26,26,60,1
253,133,35,104,60,24,33,68,1
255,118,33,104,56,23,35,71,1
275,126,39,83,76,26,37,80,1
265,129,37,74,81,28,39,74,1
271,129,38,74,80,27,40,74,1
287,131,37,104,80,30,36,69,1
270,129,37,104,84,32,35,64,1
269,110,34,105,66,30,32,49,1
281,108,34,104,56,29,32,52,1
292,102,34,108,57,30,40,49,1
325,103,39,87,72,30,43,71,1
332,114,40,85,71,28,43,74,1
360,135,46,83,69,30,46,89,1
371,137,48,111,72,28,45,95,1
362,141,52,107,70,27,45,98,1
308,130,52,120,57,26,45,88,1
308,122,52,121,62,28,45,87,1
243,98,45,118,61,26,43,70,1
218,97,45,97,57,26,42,63,1
197,84,40,95,56,26,34,58,1
205,77,36,92,57,27,29,50,1
208,75,36,99,47,25,29,47,1
221,82,37,108,47,25,27,50,1
216,80,36,107,47,26,27,52,1
218,81,37,116,71,28,28,52,1
184,73,34,107,70,26,24,49,1
200,77,35,108,75,28,25,52,1
196,77,34,102,79,30,26,59,1
187,77,33,97,82,30,26,55,1
200,93,32,93,64,28,25,57,1
214,93,32,114,74,28,26,59,1
220,90,28,109,68,25,24,59,1
222,91,28,108,66,29,25,55,1
229,97,30,117,65,30,26,58,1
216,81,30,120,73,31,22,56,1
198,82,35,107,62,29,25,50,1
215,92,37,120,64,31,26,48,1
238,88,35,123,62,27,26,44,1
253,80,37,133,64,26,25,54,1
265,84,36,123,52,23,25,55,1
272,87,37,120,64,26,23,57,1
252,95,43,126,79,26,26,60,1
232,93,42,122,81,25,26,59,1
213,95,42,111,83,25,28,48,1
208,112,45,112,85,27,29,47,1
227,114,45,120,76,26,30,45,1
220,97,39,107,63,26,28,42,1
233,102,42,112,69,27,28,51,1
247,100,39,110,66,26,28,53,1
232,73,38,132,68,23,26,54,1
245,74,37,142,77,25,27,63,1
245,82,37,134,73,27,28,64,1
217,76,35,132,65,25,26,58,1
205,83,35,131,60,25,24,58,1
244,83,34,115,59,25,24,61,1
228,71,31,119,49,23,23,54,1
224,74,32,128,52,21,21,53,1
220,73,31,126,51,23,19,50,1
247,66,31,126,55,25,21,53,1
212,73,31,127,58,27,23,47,1
213,80,29,98,59,26,23,46,1
207,72,29,91,58,30,25,44,1
236,87,31,99,60,28,29,55,1
200,87,31,98,55,26,27,50,1
211,90,33,92,55,28,26,50,1
187,84,32,102,55,29,26,47,1
177,86,33,103,60,27,27,49,1
162,77,30,94,59,27,23,46,1
162,89,37,121,61,29,25,49,1
184,85,35,124,58,26,25,52,1
192,90,38,143,65,26,24,53,1
204,88,40,164,56,25,22,52,1
194,83,40,168,56,25,22,45,1
207,69,33,158,58,23,21,43,1
187,65,35,157,61,26,22,44,1
178,65,32,138,57,24,24,45,1
184,76,31,133,61,24,24,47,1
183,73,31,126,62,25,27,48,1
188,72,32,122,59,24,28,48,1
188,70,31,146,60,23,27,45,1
185,62,33,138,57,22,26,46,1
166,41,27,115,54,23,27,40,1
174,44,36,164,60,23,25,41,1
144,42,37,168,60,25,25,39,1
189,49,38,150,52,25,26,51,1
218,48,39,155,58,26,29,55,1
227,56,40,158,60,25,28,56,1
225,58,33,118,54,25,27,55,1
233,62,32,105,53,25,27,60,1
217,75,34,107,57,25,30,60,1
193,79,31,113,50,25,27,59,1
181,75,31,118,45,28,28,58,1
170,73,31,118,53,26,28,59,1
159,70,31,115,56,26,27,52,1
98,47,27,109,50,23,22,37,1
86,43,28,95,52,24,21,31,1
97,47,28,94,64,23,22,32,1
131,55,30,90,60,25,21,31,1
196,74,33,115,59,26,23,36,1
206,79,37,117,70,27,23,37,1
212,77,38,119,68,27,23,39,1
232,80,41,121,58,24,21,47,1
228,76,42,119,63,24,23,49,1
187,57,38,98,65,23,19,47,1
185,53,43,126,55,25,22,46,1
182,52,43,131,60,26,25,47,1
193,64,46,123,62,28,27,59,1
185,67,43,114,54,28,25,60,1
180,67,46,120,52,32,26,62,1
181,69,39,85,55,31,26,64,1
186,69,38,91,52,29,23,63,1
159,48,30,90,55,30,22,46,1
157,42,33,101,58,29,23,43,1
180,44,30,91,60,26,22,44,1
192,42,31,109,57,27,22,44,2
194,54,35,125,59,27,22,42,2
215,55,33,131,59,23,21,43,2
209,57,32,127,57,26,24,44,2
240,88,47,149,86,30,25,49,2
228,88,46,135,87,29,27,48,2
223,80,43,122,83,29,26,50,2
189,82,43,121,83,30,27,47,2
189,82,42,118,86,29,24,47,2
114,56,27,94,62,24,23,36,2
101,55,27,96,63,25,20,33,2
83,55,27,82,63,25,20,30,2
74,52,29,77,59,23,19,27,2
65,55,30,77,56,22,21,24,2
59,44,29,70,48,22,21,25,2
124,45,31,72,56,24,23,38,2
128,47,30,69,57,23,23,39,2
148,61,29,65,57,23,24,41,2
149,54,27,68,56,23,24,40,2
166,54,28,94,59,24,22,44,2
126,54,25,93,51,24,20,35,2
120,54,26,95,47,24,21,34,2
96,34,27,96,51,27,19,33,2
92,37,27,106,50,26,20,34,2
59,37,26,84,47,24,22,28,2
48,31,27,86,42,22,21,27,2
48,32,27,88,43,21,21,28,2
47,32,27,89,36,20,25,27,2
42,28,29,73,33,20,24,27,2
33,33,59,68,29,24,26,27,2
34,33,59,57,27,23,28,35,2
31,29,60,46,25,25,28,35,2
26,30,60,36,23,24,27,36,2
24,31,61,96,27,31,31,42,2
23,22,37,98,25,30,29,41,2
23,25,39,130,25,32,31,36,2
21,28,74,173,34,32,31,36,2
24,46,128,192,36,32,68,72,2
29,59,187,191,36,30,73,79,2
58,109,234,268,44,35,122,124,2
77,145,337,323,47,37,144,162,2
81,166,443,334,54,39,146,170,2
95,236,558,348,62,43,151,168,2
102,259,623,370,79,45,173,169,2
95,252,671,340,82,42,148,146,2
82,237,632,305,82,40,130,107,2
79,229,595,274,75,36,128,95,2
64,167,544,270,69,33,107,85,2
52,134,480,244,51,40,76,78,2
43,119,408,221,43,44,68,67,2
40,114,422,178,41,46,62,61,2
40,107,406,199,44,47,64,60,2
35,84,366,177,42,47,63,46,2
29,71,334,162,36,34,41,34,2
28,71,339,158,30,27,34,33,2
27,67,329,167,34,24,31,27,2
24,61,352,182,40,23,28,27,2
26,63,379,249,61,25,24,25,2
30,67,388,248,62,24,25,25,2
29,61,364,258,67,26,26,24,2
31,62,366,261,66,25,25,24,2
31,60,318,235,64,25,21,22,2
29,56,242,188,47,21,22,22,2
27,50,263,184,53,23,22,22,2
28,50,275,167,48,21,22,22,2
27,49,263,156,52,24,21,21,2
28,46,257,155,47,22,22,25,2
27,43,240,138,48,23,23,25,2
27,36,185,153,40,22,22,23,2
28,42,162,174,39,22,22,24,2
28,40,168,188,37,22,24,23,2
26,38,160,205,42,23,22,20,2
30,42,168,202,45,23,23,24,2
29,41,166,190,48,22,22,24,2
26,36,187,183,63,23,22,23,2
27,35,172,165,62,21,22,22,2
27,39,183,159,60,21,23,21,2
23,41,180,141,58,20,22,18,2
30,68,259,209,61,21,25,22,2
29,70,253,203,50,22,26,24,2
29,72,258,237,50,22,25,26,2
30,71,244,231,51,23,24,26,2
31,69,280,231,51,23,24,28,2
25,42,251,187,51,23,20,26,2
26,42,253,184,49,21,17,25,2
27,41,265,163,48,25,19,24,2
26,41,279,186,49,23,18,26,2
26,40,231,191,51,24,20,23,2
26,43,215,194,48,25,20,24,2
26,41,200,198,48,26,21,25,2
23,38,184,187,54,24,21,24,2
27,43,200,189,58,26,26,24,2
25,41,204,187,55,27,24,26,2
23,41,185,187,54,27,26,25,2
25,40,185,180,53,27,25,24,2
26,41,177,170,45,25,24,26,2
23,34,156,132,37,24,22,25,2
24,32,157,188,45,24,24,27,2
26,29,164,169,43,23,23,27,2
25,30,167,179,40,23,26,26,2
24,27,161,187,38,26,25,24,2
23,28,135,191,42,25,23,24,2
23,28,172,146,40,24,24,19,2
21,28,148,143,40,24,23,18,2
18,26,155,139,46,24,20,19,2
19,29,156,133,48,21,21,19,2
19,27,154,141,45,23,21,20,2
19,27,130,137,41,22,18,22,2
20,30,129,149,45,22,18,21,2
19,31,133,175,43,23,19,23,2
19,31,144,170,42,24,19,23,2
21,31,177,174,42,24,20,23,2
25,34,165,161,44,26,21,21,2
25,35,196,171,44,26,20,21,2
25,35,195,162,46,25,21,20,2
25,34,192,162,46,24,22,20,2
24,34,169,147,45,25,22,21,2
21,35,191,153,46,24,23,21,2
21,34,197,153,42,24,24,22,2
21,33,210,127,39,22,23,21,2
20,34,209,135,38,24,22,22,2
23,34,206,141,39,22,20,22,2
22,30,186,144,37,22,19,23,2
22,33,226,123,40,21,18,22,2
23,32,215,120,41,23,20,23,2
25,30,214,117,42,21,21,23,2
23,31,212,126,38,22,21,22,2
24,32,207,162,38,22,22,22,2
22,31,196,160,35,24,22,21,2
21,30,192,162,33,23,20,20,2
22,32,192,173,34,22,21,20,2
23,31,194,164,37,23,21,19,2
21,32,192,109,43,22,21,18,2
22,28,146,115,45,22,22,18,2
22,30,150,114,46,21,22,19,2
21,30,148,87,44,22,22,19,2
21,30,147,80,44,20,23,19,2
23,30,149,124,40,20,21,20,2
23,27,120,129,39,19,20,21,2
23,29,107,126,36,19,20,22,2
23,28,112,128,35,21,22,22,2
21,27,111,129,35,22,23,23,2
19,25,108,95,37,21,22,23,2
21,28,98,98,44,22,22,22,2
20,25,127,108,45,23,24,22,2
21,24,126,114,47,22,21,20,2
22,29,130,116,45,22,21,19,2
24,31,127,144,42,22,23,20,2
23,31,129,134,34,22,22,21,2
23,33,102,130,39,21,23,22,2
22,34,96,123,40,21,22,23,2
21,32,88,134,41,20,20,21,2
20,35,113,100,38,23,20,19,2
21,35,108,105,39,23,20,18,2
23,34,105,111,43,22,19,17,2
21,33,109,128,46,21,19,18,2
22,36,115,131,46,22,19,20,2
22,31,88,128,46,18,22,21,2
25,29,87,132,46,18,21,21,2
23,28,84,165,40,22,20,20,2
25,29,166,157,37,21,19,20,2
24,28,169,154,39,21,19,19,2
24,27,181,154,37,21,17,18,2
22,28,186,144,39,24,17,20,2
23,30,199,94,36,20,17,19,2
21,29,152,117,35,20,17,18,2
23,30,157,109,33,19,19,20,2
25,31,153,130,33,23,18,21,2
24,30,175,133,33,20,19,22,2
24,28,164,135,33,20,20,21,2
24,28,149,122,34,21,21,22,2
22,27,134,122,33,24,18,22,2
21,26,127,101,36,21,19,22,2
21,29,96,109,39,21,20,20,2
20,29,143,109,39,23,22,23,2
21,32,153,98,37,22,22,24,2
21,30,153,92,36,21,25,23,2
21,30,162,115,34,21,24,24,2
20,27,160,142,37,24,24,25,2
20,27,111,141,37,24,22,23,2
19,25,99,140,38,24,20,22,2
20,27,102,143,39,23,19,22,2
19,29,84,139,39,24,19,19,2
20,29,76,118,38,23,21,19,2
19,28,72,120,36,23,23,20,2
20,27,76,125,33,23,24,21,2
20,25,80,118,39,23,23,22,2
21,28,97,120,38,23,22,21,2
20,28,105,109,32,22,22,20,2
22,29,105,106,33,25,21,20,2
